 #        time                      h  [L]            Darcian flow [L.T^{-1}]   in    x         z              directions   cumulative flux
 #-----------------------------------------------------------------------------------------------

     0.100000000000E-005    -0.278500000000E+003     0.000000000000E+000     0.000000000000E+000     0.000000000000E+000
     0.205999994278E-005    -0.278500000000E+003     0.272150326281E-013    -0.100806464885E-012     0.110680448000E-018
     0.318359982147E-005    -0.278500000000E+003    -0.279040562571E-013    -0.444983264145E-012     0.611645668494E-018
     0.437461562859E-005    -0.278500000000E+003    -0.302249779546E-013    -0.228343287772E-011     0.333148855902E-017
     0.563709231599E-005    -0.278500000000E+003     0.155378953374E-013    -0.935050608318E-011     0.151363008027E-016
     0.697531753239E-005    -0.278500000000E+003    -0.152143171551E-013    -0.337099634631E-010     0.602478285476E-016
     0.839383618521E-005    -0.278500000000E+003     0.269360460381E-013    -0.108613753587E-009     0.214318468700E-015
     0.989746587602E-005    -0.278500000000E+003     0.141765795645E-012    -0.320872234153E-009     0.696791534019E-015
     0.114913132622E-004    -0.278499999999E+003     0.307993253731E-012    -0.882268579179E-009     0.210299308858E-014
     0.131807914004E-004    -0.278499999997E+003     0.752825870267E-012    -0.228423724193E-008     0.596216218086E-014
     0.149716381303E-004    -0.278499999992E+003     0.187466397491E-011    -0.561899259109E-008     0.160249172475E-013
     0.168699355614E-004    -0.278499999982E+003     0.449484802123E-011    -0.132247920207E-007     0.411295074177E-013
     0.188821307298E-004    -0.278499999959E+003     0.100708370854E-010    -0.299465267181E-007     0.101387767197E-012
     0.210150574931E-004    -0.278499999910E+003     0.217444221422E-010    -0.655325107610E-007     0.241163820963E-012
     0.232759597402E-004    -0.278499999809E+003     0.452024741880E-010    -0.139085703661E-006     0.555623017516E-012
     0.256725159928E-004    -0.278499999605E+003     0.909961002518E-010    -0.287146202725E-006     0.124378507961E-011
     0.282128654833E-004    -0.278499999201E+003     0.177886347924E-009    -0.578064538062E-006     0.271227110392E-011
     0.309056357980E-004    -0.278499998423E+003     0.338666857440E-009    -0.113706142868E-005     0.577411650081E-011
     0.337599721774E-004    -0.278499996952E+003     0.629249064041E-009    -0.218910541526E-005     0.120225599842E-010
     0.367855685763E-004    -0.278499994225E+003     0.114239849110E-008    -0.413096206441E-005     0.245211844081E-010
     0.399927005860E-004    -0.278499989258E+003     0.202875572013E-008    -0.765016774754E-005     0.490562831335E-010
     0.433922603327E-004    -0.278499980363E+003     0.352728429784E-008    -0.139181884364E-004     0.963719978091E-010
     0.469957934698E-004    -0.278499964694E+003     0.600855685315E-008    -0.248988765898E-004     0.186095927288E-009
     0.508155383889E-004    -0.278499937513E+003     0.100353166492E-007    -0.438331241662E-004     0.353527284997E-009
     0.548644677845E-004    -0.278499891056E+003     0.164421073590E-007    -0.759882844029E-004     0.661198490642E-009
     0.591563327122E-004    -0.278499812782E+003     0.264397925423E-007    -0.129798833162E-003     0.121827756190E-008
     0.637057092900E-004    -0.278499682703E+003     0.417464830664E-007    -0.218575459654E-003     0.221265965667E-008
     0.685280482021E-004    -0.278499469407E+003     0.647443661159E-007    -0.363026050560E-003     0.396329433424E-008
     0.736397271730E-004    -0.278499124166E+003     0.986619797744E-007    -0.594916398226E-003     0.700431601833E-008
     0.790581065897E-004    -0.278498572381E+003     0.147775399630E-006    -0.962302861596E-003     0.122184380977E-007
     0.848015884613E-004    -0.278497701302E+003     0.217622888270E-006    -0.153689485375E-002     0.210455659173E-007
     0.908896789166E-004    -0.278496342662E+003     0.315215537324E-006    -0.242425133276E-002     0.358046274423E-007
     0.973430544509E-004    -0.278494248454E+003     0.449225058130E-006    -0.377767388246E-002     0.601833758241E-007
     0.104183632148E-003    -0.278491057653E+003     0.630112842588E-006    -0.581681887456E-002     0.999737775186E-007
     0.111434644115E-003    -0.278486251154E+003     0.870161426103E-006    -0.885219429701E-002     0.164161144614E-006
     0.119120716386E-003    -0.278479091713E+003     0.118335716665E-005    -0.133168074459E-001     0.266515089461E-006
     0.127267952553E-003    -0.278468545152E+003     0.158505881348E-005    -0.198062538536E-001     0.427881317707E-006
     0.135904022424E-003    -0.278453178724E+003     0.209135854648E-005    -0.291284437616E-001     0.679436593909E-006
     0.145058255993E-003    -0.278431032286E+003     0.271798400292E-005    -0.423639021773E-001     0.106724565013E-005
     0.154761743052E-003    -0.278399458016E+003     0.347848919477E-005    -0.609371015172E-001     0.165854802710E-005
     0.165047438780E-003    -0.278354924950E+003     0.438130792319E-005    -0.866985445259E-001     0.255030287725E-005
     0.175950275662E-003    -0.278292785745E+003     0.542500838976E-005    -0.122016273157E+000     0.388062640183E-005
     0.187507282134E-003    -0.278207005045E+003     0.659077900715E-005    -0.169874121102E+000     0.584386272027E-005
     0.199757708333E-003    -0.278089851730E+003     0.783085483367E-005    -0.233972370903E+000     0.871012398418E-005
     0.212743159403E-003    -0.277931561405E+003     0.905136281434E-005    -0.318824584525E+000     0.128502050280E-004
     0.226507736794E-003    -0.277719980692E+003     0.100885813202E-004    -0.429842397369E+000     0.187668039741E-004
     0.241098188040E-003    -0.277440211029E+003     0.106783292292E-004    -0.573398242118E+000     0.271329430722E-004
     0.256564065527E-003    -0.277074277252E+003     0.104109354662E-004    -0.756854075160E+000     0.388383554750E-004
     0.272957894778E-003    -0.276600856050E+003     0.867049874660E-005    -0.988541566257E+000     0.550443371202E-004
     0.290335352846E-003    -0.275995108064E+003     0.455997319812E-005    -0.127767810171E+001     0.772471347572E-004
     0.308755457403E-003    -0.275228664608E+003    -0.318143531312E-005    -0.163420298346E+001     0.107349324581E-003
     0.328280767180E-003    -0.274269823652E+003    -0.162570690012E-004    -0.206851991406E+001     0.147737816684E-003
     0.348977594427E-003    -0.273084008009E+003    -0.368710331678E-004    -0.259113545731E+001     0.201366099622E-003
     0.370916230124E-003    -0.271634529414E+003    -0.677443342662E-004    -0.321218899249E+001     0.271837143734E-003
     0.394171182707E-003    -0.269883683510E+003    -0.112064510096E-003    -0.394087805244E+001     0.363482076017E-003
     0.418821431115E-003    -0.267794171830E+003    -0.173344821796E-003    -0.478479409513E+001     0.481428439120E-003
     0.444950693017E-003    -0.265330808426E+003    -0.255174741061E-003    -0.574919769152E+001     0.631650731474E-003
     0.472647709137E-003    -0.262462424264E+003    -0.360855429729E-003    -0.683627825326E+001     0.820995240724E-003
     0.502006544641E-003    -0.259163837895E+003    -0.492931630793E-003    -0.804446027044E+001     0.105717122696E-002
     0.533126908594E-003    -0.255417724755E+003    -0.652651876281E-003    -0.936783281427E+001     0.134870159430E-002
     0.566114492604E-003    -0.251216199015E+003    -0.839407045613E-003    -0.107957877115E+002     0.170482854946E-002
     0.601081329767E-003    -0.246561928911E+003    -0.105020768036E-002    -0.123129495155E+002     0.213537345173E-002
     0.638146175159E-003    -0.241468641704E+003    -0.127925976358E-002    -0.138994631165E+002     0.265055490536E-002
     0.677434909153E-003    -0.235960933053E+003    -0.151767997561E-002    -0.155316720003E+002     0.326077463798E-002
     0.719080964939E-003    -0.230073350469E+003    -0.175313960787E-002    -0.171831869913E+002     0.397638660572E-002
     0.763225781689E-003    -0.223848793253E+003    -0.197005332997E-002    -0.188262902852E+002     0.480746974500E-002
     0.810019284919E-003    -0.217336610689E+003    -0.215324989090E-002    -0.204333594746E+002     0.576361822287E-002
     0.859620395664E-003    -0.210591163928E+003    -0.232754844067E-002    -0.219778401688E+002     0.685374351314E-002
     0.912197570216E-003    -0.203668690338E+003    -0.243874399069E-002    -0.234358503254E+002     0.808593431314E-002
     0.967929372233E-003    -0.196626527488E+003    -0.243396990310E-002    -0.247868511952E+002     0.946735020323E-002
     0.102700507918E-002    -0.189519583979E+003    -0.232387369429E-002    -0.260151276620E+002     0.110042122673E-001
     0.108962532517E-002    -0.182398334309E+003    -0.209964186658E-002    -0.271103914017E+002     0.127018716508E-001
     0.115600278233E-002    -0.175309334829E+003    -0.179482730116E-002    -0.280661091009E+002     0.145648286091E-001
     0.122636288312E-002    -0.168295824536E+003    -0.143951756525E-002    -0.288782886893E+002     0.165967079145E-001
     0.130094458593E-002    -0.161396104040E+003    -0.105634545080E-002    -0.295463859651E+002     0.188003276932E-001
     0.138000118665E-002    -0.154643355568E+003    -0.935133264269E-003    -0.300731269163E+002     0.211778068812E-001
     0.146380117888E-002    -0.148062156128E+003    -0.789461091674E-003    -0.304655035701E+002     0.237308158447E-001
     0.155262916586E-002    -0.141670643166E+003    -0.299061146717E-003    -0.307325096881E+002     0.264607228151E-001
     0.164678682697E-002    -0.135485289350E+003    -0.233752993005E-003    -0.308830323076E+002     0.293685969052E-001
     0.174659394236E-002    -0.129513781029E+003    -0.137242776893E-003    -0.309289530935E+002     0.324555264955E-001
     0.185238947896E-002    -0.123760847906E+003     0.166786475792E-003    -0.308808795793E+002     0.357225857213E-001
     0.196453274170E-002    -0.118227014728E+003     0.332479841652E-003    -0.307505783042E+002     0.391710559038E-001
     0.208340459379E-002    -0.112908837179E+003     0.579453440737E-003    -0.305498295831E+002     0.428025707280E-001
     0.220940875020E-002    -0.107804675838E+003     0.607548053171E-003    -0.302858053011E+002     0.466187080771E-001
     0.234297314879E-002    -0.102918355365E+003     0.517275762428E-003    -0.299610377681E+002     0.506204360683E-001
     0.248455140365E-002    -0.982477994896E+002     0.332553101717E-003    -0.295831746056E+002     0.548087703024E-001
     0.263462434571E-002    -0.937851005032E+002     0.285085278123E-003    -0.291631309472E+002     0.591853671633E-001
     0.279370165569E-002    -0.895234229310E+002     0.894641507139E-004    -0.287070664836E+002     0.637520100772E-001
     0.296232359518E-002    -0.854580022512E+002     0.300721814233E-004    -0.282195685547E+002     0.685104484583E-001
     0.314106284138E-002    -0.815827089576E+002    -0.266753587251E-004    -0.277060725774E+002     0.734626109861E-001
     0.333052643213E-002    -0.778881688305E+002    -0.589647114405E-004    -0.271732535483E+002     0.786109531758E-001
     0.353135782749E-002    -0.743660034132E+002     0.269173861191E-004    -0.266260711842E+002     0.839583042045E-001
     0.374423909507E-002    -0.710061772633E+002     0.606173653720E-004    -0.260694357193E+002     0.895079987256E-001
     0.396989322653E-002    -0.677962973826E+002     0.241586756211E-003    -0.255096879440E+002     0.952643652026E-001
     0.420908659296E-002    -0.647310897086E+002     0.263800995968E-003    -0.249458592304E+002     0.101231249251E+000
     0.446263154769E-002    -0.618044059502E+002     0.798377196928E-004    -0.243800751437E+002     0.107412694300E+000
     0.473138918520E-002    -0.590047466316E+002    -0.119997416146E-003    -0.238185598240E+002     0.113814114167E+000
     0.501627226558E-002    -0.563299611073E+002    -0.291438496844E-003    -0.232567122915E+002     0.120439558004E+000
     0.531824831448E-002    -0.537846023718E+002    -0.335117935449E-003    -0.226918201075E+002     0.127291944184E+000
     0.563834290904E-002    -0.513595560647E+002    -0.418784051226E-003    -0.221302918935E+002     0.134375730996E+000
     0.597764316095E-002    -0.490452440974E+002    -0.364109634024E-003    -0.215759086972E+002     0.141696442253E+000
     0.633730140856E-002    -0.468277388552E+002    -0.431167802244E-003    -0.210342814367E+002     0.149261595056E+000
     0.671853913045E-002    -0.447058956340E+002    -0.564274138751E-003    -0.205002897277E+002     0.157077078813E+000
     0.712265109384E-002    -0.426790278006E+002    -0.599446607536E-003    -0.199718061592E+002     0.165147924616E+000
     0.755100975191E-002    -0.407442303657E+002    -0.802330701057E-003    -0.194515087419E+002     0.173480146805E+000
     0.800506990496E-002    -0.389008437263E+002    -0.704446352938E-003    -0.189368296944E+002     0.182078606600E+000
     0.848637364120E-002    -0.371417184480E+002    -0.777382534396E-003    -0.184317415121E+002     0.190949872663E+000
     0.899655557408E-002    -0.354609226184E+002    -0.755919434783E-003    -0.179375312024E+002     0.200101277011E+000
     0.953734839373E-002    -0.338503328534E+002    -0.757489749553E-003    -0.174556110680E+002     0.209541146149E+000
     0.101105887516E-001    -0.323027146911E+002    -0.931886466274E-003    -0.169866356360E+002     0.219278571255E+000
     0.107182234982E-001    -0.308162672455E+002    -0.109271353140E-002    -0.165278286173E+002     0.229321454230E+000
     0.113623162948E-001    -0.293890586040E+002    -0.138585009081E-002    -0.160773396064E+002     0.239676752897E+000
     0.120450546223E-001    -0.280229794032E+002    -0.138959429207E-002    -0.156324720295E+002     0.250349640748E+000
     0.127687572104E-001    -0.267087319119E+002    -0.159894036412E-002    -0.151964022503E+002     0.261347316447E+000
     0.135358819124E-001    -0.254301925421E+002    -0.141059355186E-002    -0.147723764819E+002     0.272679571405E+000
     0.143490340526E-001    -0.241889774143E+002    -0.165740386124E-002    -0.143504238505E+002     0.284348649350E+000
     0.152109752747E-001    -0.229845483846E+002    -0.175055222838E-002    -0.139263290106E+002     0.296352326492E+000
     0.161246329208E-001    -0.218023099415E+002    -0.207536307077E-002    -0.135036066020E+002     0.308690000059E+000
     0.170931099734E-001    -0.206389028272E+002    -0.174001292469E-002    -0.130730920381E+002     0.321350989817E+000
     0.181196955938E-001    -0.194742539822E+002    -0.155846826392E-002    -0.126358360708E+002     0.334322757527E+000
     0.192078762926E-001    -0.182884575729E+002    -0.151667384048E-002    -0.121897104905E+002     0.347587365309E+000
     0.203613477710E-001    -0.170638454523E+002    -0.172857715883E-002    -0.117275729516E+002     0.361114786368E+000
     0.215840274722E-001    -0.157968993029E+002    -0.252358920297E-002    -0.112257152872E+002     0.374840240927E+000
     0.228800678855E-001    -0.144867681470E+002    -0.304535514851E-002    -0.107016324434E+002     0.388709989624E+000
     0.242538706494E-001    -0.131204636725E+002    -0.374544878971E-002    -0.101494321060E+002     0.402653308453E+000
     0.257101015006E-001    -0.117006025457E+002    -0.451148924277E-002    -0.954844345620E+001     0.416558047946E+000
     0.272537061195E-001    -0.101999345574E+002    -0.105771781394E-002    -0.889735872751E+001     0.430292052071E+000
     0.288899269272E-001    -0.862257556254E+001    -0.123581973376E-002    -0.821222825458E+001     0.443729070971E+000
     0.306243208897E-001    -0.699626377011E+001    -0.118198152124E-002    -0.748284727644E+001     0.456707276271E+000
     0.324627783907E-001    -0.537483301384E+001    -0.209790193118E-003    -0.671485895208E+001     0.469052259086E+000
     0.344115432366E-001    -0.378534166238E+001     0.183228711722E-002    -0.595189079805E+001     0.480651095190E+000
     0.364772338618E-001    -0.233576981553E+001     0.885703746937E-003    -0.520869926923E+001     0.491410656595E+000
     0.386668658063E-001    -0.111751671202E+001     0.871226932214E-003    -0.455304014519E+001     0.501380138924E+000
     0.409878755421E-001    -0.244013861433E+000     0.600890970261E-002    -0.407224844225E+001     0.510831877495E+000
     0.434481457293E-001     0.244170141029E+000     0.145964757603E-001    -0.376677233705E+001     0.520099224757E+000
     0.460560319869E-001     0.515888262688E+000     0.135791693742E-001    -0.350990239146E+001     0.529252719472E+000
     0.488203912708E-001     0.662178979377E+000     0.153464215327E-001    -0.340808620612E+001     0.538673989730E+000
     0.517506119535E-001     0.748658129028E+000     0.135750201067E-001    -0.334936553942E+001     0.548488450517E+000
     0.548566457095E-001     0.824081486486E+000     0.823741521233E-002    -0.329735730497E+001     0.558730185571E+000
     0.581490413132E-001     0.907907939962E+000     0.406356525165E-002    -0.323842668094E+001     0.569392375731E+000
     0.616389804647E-001     0.981153556307E+000    -0.612977030997E-002    -0.318383848873E+001     0.580503798919E+000
     0.653383157655E-001     0.108546675930E+001    -0.470265136975E-002    -0.311164847500E+001     0.592014843112E+000
     0.692596109728E-001     0.116989416976E+001    -0.176611920260E-002    -0.304818608933E+001     0.603967682621E+000
     0.734161836681E-001     0.128194387032E+001    -0.366758873640E-003    -0.297361398535E+001     0.616327725413E+000
     0.778221504872E-001     0.135689428470E+001     0.306875806624E-002    -0.292001696391E+001     0.629193230372E+000
     0.824924750635E-001     0.141234718530E+001     0.747498902549E-002    -0.288065362005E+001     0.642646863064E+000
     0.874430188470E-001     0.139507050757E+001     0.990925958909E-002    -0.289440195596E+001     0.656975810648E+000
     0.926905949743E-001     0.145602861235E+001     0.878603553051E-002    -0.285117859251E+001     0.671937658403E+000
     0.982530253690E-001     0.152273886810E+001     0.303464201460E-002    -0.280429505127E+001     0.687536363565E+000
     0.104149201269E+000     0.160566993076E+001    -0.369358075858E-002    -0.274708588282E+001     0.703733679783E+000
     0.110399147386E+000     0.169633676925E+001    -0.901103822148E-002    -0.268393904106E+001     0.720508248712E+000
     0.117024089912E+000     0.177540602858E+001    -0.120171007917E-001    -0.262851861559E+001     0.737922215455E+000
     0.124046528610E+000     0.183715446587E+001    -0.104187013511E-001    -0.258427503234E+001     0.756070275933E+000
     0.131490313229E+000     0.188908990313E+001    -0.590771024128E-002    -0.254711536506E+001     0.775030505108E+000
     0.139380724499E+000     0.193215570955E+001     0.171143571662E-002    -0.251681076483E+001     0.794889181722E+000
     0.147744559993E+000     0.196305234528E+001     0.833194336896E-002    -0.249408506963E+001     0.815749415354E+000
     0.156610225139E+000     0.199266020256E+001     0.133584954433E-001    -0.247322493487E+001     0.837676519294E+000
     0.166007829686E+000     0.202158011228E+001     0.155466057785E-001    -0.245241618929E+001     0.860723819910E+000
     0.175969289968E+000     0.210849968738E+001     0.110457703562E-001    -0.238928648174E+001     0.884524856640E+000
     0.185969289968E+000     0.208761322709E+001     0.850560036923E-002    -0.240655207445E+001     0.908590527693E+000
     0.195969289968E+000     0.212768725545E+001     0.177744829022E-002    -0.237876888741E+001     0.932378223208E+000
     0.205969289968E+000     0.217344981191E+001    -0.315262473818E-002    -0.234651134088E+001     0.955843357795E+000
     0.215969289968E+000     0.221963505621E+001    -0.638017447851E-002    -0.231461560559E+001     0.978989601784E+000
