 #        time                      h  [L]            Darcian flow [L.T^{-1}]   in    x         z              directions   cumulative flux
 #-----------------------------------------------------------------------------------------------

     0.100000000000E-005    -0.278499999997E+003    -0.244643512576E-009    -0.183614579346E-008     0.185237194513E-014
     0.205999994278E-005    -0.278499999981E+003    -0.170574816058E-008    -0.128156380724E-007     0.155567469762E-013
     0.318359982147E-005    -0.278499999922E+003    -0.694780660473E-008    -0.522614962697E-007     0.747943989646E-013
     0.437461562859E-005    -0.278499999758E+003    -0.215953097656E-007    -0.162637521707E-006     0.270198395186E-012
     0.563709231599E-005    -0.278499999363E+003    -0.567243604855E-007    -0.427737799111E-006     0.814935182720E-012
     0.697531753239E-005    -0.278499998507E+003    -0.132653669079E-006    -0.100160132387E-005     0.216700777537E-011
     0.839383618521E-005    -0.278499996787E+003    -0.284826505936E-006    -0.215350101369E-005     0.524839232806E-011
     0.989746587602E-005    -0.278499993522E+003    -0.572784187424E-006    -0.433677301328E-005     0.118259227304E-010
     0.114913132622E-004    -0.278499987598E+003    -0.109366698138E-005    -0.829268213397E-005     0.251576424424E-010
     0.131807914004E-004    -0.278499977233E+003    -0.200229395854E-005    -0.152053700799E-004     0.510685567935E-010
     0.149716381303E-004    -0.278499959626E+003    -0.354072490310E-005    -0.269307276416E-004     0.997124119028E-010
     0.168699355614E-004    -0.278499930448E+003    -0.608138185189E-005    -0.463314690155E-004     0.188417724773E-009
     0.188821307298E-004    -0.278499883097E+003    -0.101894019696E-004    -0.777636457073E-004     0.346230902783E-009
     0.210150574931E-004    -0.278499807624E+003    -0.167120156184E-004    -0.127777379299E-003     0.621091850005E-009
     0.232759597402E-004    -0.278499689189E+003    -0.269055150900E-004    -0.206117949590E-003     0.109105787220E-008
     0.256725159928E-004    -0.278499505870E+003    -0.426139111195E-004    -0.327143886577E-003     0.188170015141E-008
     0.282128654833E-004    -0.278499225574E+003    -0.665177605243E-004    -0.511817762612E-003     0.319283069593E-008
     0.309056357980E-004    -0.278498801725E+003    -0.102476962958E-003    -0.790474364268E-003     0.533920892598E-008
     0.337599721774E-004    -0.278498167297E+003    -0.155997625555E-003    -0.120663127194E-002     0.881200421816E-008
     0.367855685763E-004    -0.278497226647E+003    -0.234860431433E-003    -0.182218017918E-002     0.143707914659E-007
     0.399927005860E-004    -0.278495844443E+003    -0.349956360268E-003    -0.272438533138E-002     0.231800451380E-007
     0.433922603327E-004    -0.278493830798E+003    -0.516385058323E-003    -0.403522008139E-002     0.370098848228E-007
     0.469957934698E-004    -0.278490921513E+003    -0.754881430556E-003    -0.592369503375E-002     0.585287439880E-007
     0.508155383889E-004    -0.278486752059E+003    -0.109364657918E-002    -0.862197137432E-002     0.917263607270E-007
     0.548644677845E-004    -0.278480823658E+003    -0.157066901265E-002    -0.124462078554E-001     0.142519867913E-006
     0.591563327122E-004    -0.278472459472E+003    -0.223662945078E-002    -0.178232527829E-001     0.219614814663E-006
     0.637057092900E-004    -0.278460748616E+003    -0.315848523577E-002    -0.253244517925E-001     0.335717889756E-006
     0.685280482021E-004    -0.278444475378E+003    -0.442382541419E-002    -0.357079821208E-001     0.509230322574E-006
     0.736397271730E-004    -0.278422030776E+003    -0.614607171352E-002    -0.499712251041E-001     0.766591939002E-006
     0.790581065897E-004    -0.278391303423E+003    -0.847057079945E-002    -0.694147313885E-001     0.114549729791E-005
     0.848015884613E-004    -0.278349546679E+003    -0.115815769673E-001    -0.957193033602E-001     0.169926897443E-005
     0.908896789166E-004    -0.278293219236E+003    -0.157100604280E-001    -0.131037611931E+000     0.250275073493E-005
     0.973430544509E-004    -0.278217796745E+003    -0.211421936186E-001    -0.178101586405E+000     0.366017703898E-005
     0.104183632148E-003    -0.278117552870E+003    -0.282282637496E-001    -0.240346577076E+000     0.531558711764E-005
     0.111434644115E-003    -0.277985309385E+003    -0.373916259095E-001    -0.322052987167E+000     0.766648395980E-005
     0.119120716386E-003    -0.277812156825E+003    -0.491371302166E-001    -0.428505662060E+000     0.109815926942E-004
     0.127267952553E-003    -0.277587150070E+003    -0.640582012772E-001    -0.566170710833E+000     0.156237497871E-004
     0.135904022424E-003    -0.277296987470E+003    -0.828413843708E-001    -0.742888463234E+000     0.220791525955E-004
     0.145058255993E-003    -0.276925688028E+003    -0.106266666404E+000    -0.968079747735E+000     0.309944126945E-004
     0.154761743052E-003    -0.276454288980E+003    -0.135201205569E+000    -0.125296042251E+001     0.432230748939E-004
     0.165047438780E-003    -0.275860595609E+003    -0.170583257100E+000    -0.161075590853E+001     0.598834676547E-004
     0.175950275662E-003    -0.275119025637E+003    -0.213392103801E+000    -0.205690313078E+001     0.824299087227E-004
     0.187507282134E-003    -0.274200600742E+003    -0.264598821585E+000    -0.260922144184E+001     0.112739354237E-003
     0.199757708333E-003    -0.273073145319E+003    -0.325092020626E+000    -0.328802632080E+001     0.153215477818E-003
     0.212743159403E-003    -0.271701754688E+003    -0.395572792254E+000    -0.411614934276E+001     0.206911791193E-003
     0.226507736794E-003    -0.270049587962E+003    -0.476414631027E+000    -0.511881455761E+001     0.277674616576E-003
     0.241098188040E-003    -0.268079021681E+003    -0.567487807721E+000    -0.632330478332E+001     0.370305283413E-003
     0.256564065527E-003    -0.265753167375E+003    -0.667954060813E+000    -0.775833211356E+001     0.490738578666E-003
     0.272957894778E-003    -0.263037710682E+003    -0.776046561423E+000    -0.945300786118E+001     0.646230921452E-003
     0.290335352846E-003    -0.259902975750E+003    -0.888861132389E+000    -0.114352945578E+002     0.845546680691E-003
     0.308755457403E-003    -0.256326063300E+003    -0.100219607891E+001    -0.137298283896E+002     0.109912441570E-002
     0.328280767180E-003    -0.252292862445E+003    -0.111048754750E+001    -0.163550427317E+002     0.141919695655E-002
     0.348977594427E-003    -0.247799704742E+003    -0.120689282432E+001    -0.193196236487E+002     0.181983132179E-002
     0.370916230124E-003    -0.242854426217E+003    -0.128357348067E+001    -0.226185013121E+002     0.231684875912E-002
     0.394171182707E-003    -0.237476643850E+003    -0.133222178002E+001    -0.262288195161E+002     0.292758499820E-002
     0.418821431115E-003    -0.231697149977E+003    -0.134485312102E+001    -0.301065812526E+002     0.367045975824E-002
     0.444950693017E-003    -0.225556479686E+003    -0.131484945793E+001    -0.341848494149E+002     0.456434511458E-002
     0.472647709137E-003    -0.219102853054E+003    -0.123817687838E+001    -0.383744150079E+002     0.562775501835E-002
     0.502006544641E-003    -0.212389843229E+003    -0.111459861906E+001    -0.425675812750E+002     0.687791797852E-002
     0.533126908594E-003    -0.205474178353E+003    -0.948598146951E+000    -0.466451682265E+002     0.832983273301E-002
     0.566114492604E-003    -0.198413994351E+003    -0.749662732148E+000    -0.504861492298E+002     0.999543241508E-002
     0.601081329767E-003    -0.191267648811E+003    -0.531617711896E+000    -0.539786596985E+002     0.118829869552E-001
     0.638146175159E-003    -0.184092953814E+003    -0.310896832270E+000    -0.570306607802E+002     0.139968509885E-001
     0.677434909153E-003    -0.176946488151E+003    -0.103968170058E+000    -0.595784335844E+002     0.163376157815E-001
     0.719080964939E-003    -0.169882605900E+003     0.755001838762E-001    -0.615913554747E+002     0.189026547347E-001
     0.763225781689E-003    -0.162951912364E+003     0.218927756139E+000    -0.630720358109E+002     0.216869749708E-001
     0.810019284919E-003    -0.156199279540E+003     0.323832239147E+000    -0.640518011304E+002     0.246842214393E-001
     0.859620395664E-003    -0.149661786919E+003     0.393246224568E+000    -0.645825794972E+002     0.278876485014E-001
     0.912197570216E-003    -0.143367142957E+003     0.433825454695E+000    -0.647271406303E+002     0.312908951100E-001
     0.967929372233E-003    -0.137333072417E+003     0.453431189425E+000    -0.645499954519E+002     0.348884714320E-001
     0.102700507918E-002    -0.131567866515E+003     0.459090191326E+000    -0.641107949151E+002     0.386759590689E-001
     0.108962532517E-002    -0.126071919964E+003     0.455921253925E+000    -0.634609645566E+002     0.426500028338E-001
     0.115600278233E-002    -0.120839796825E+003     0.447076185763E+000    -0.626431246518E+002     0.468082000516E-001
     0.122636288312E-002    -0.115862294454E+003     0.434305952358E+000    -0.616921469434E+002     0.511489732892E-001
     0.130094458593E-002    -0.111128112887E+003     0.418644633943E+000    -0.606366903884E+002     0.556714686950E-001
     0.138000118665E-002    -0.106624982191E+003     0.400878174849E+000    -0.595005127107E+002     0.603754837304E-001
     0.146380117888E-002    -0.102340319938E+003     0.381732568647E+000    -0.583033701196E+002     0.652614104147E-001
     0.155262916586E-002    -0.982615984444E+002     0.361889761147E+000    -0.570616205706E+002     0.703301812386E-001
     0.164678682697E-002    -0.943766332304E+002     0.341955694955E+000    -0.557886460303E+002     0.755832083422E-001
     0.174659394236E-002    -0.906736839866E+002     0.322393690373E+000    -0.544954966923E+002     0.810223418475E-001
     0.185238947896E-002    -0.871416552335E+002     0.303548965623E+000    -0.531912616060E+002     0.866498315444E-001
     0.196453274170E-002    -0.837702393064E+002     0.285634403672E+000    -0.518834303840E+002     0.924682968822E-001
     0.208340459379E-002    -0.805499644413E+002     0.268725539511E+000    -0.505782249520E+002     0.984807090172E-001
     0.220940875020E-002    -0.774721606116E+002     0.252787313042E+000    -0.492808476373E+002     0.104690382344E+000
     0.234297314879E-002    -0.745288785881E+002     0.237719978697E+000    -0.479956405607E+002     0.111100969840E+000
     0.248455140365E-002    -0.717127895604E+002     0.223411222451E+000    -0.467261929546E+002     0.117716458311E+000
     0.263462434571E-002    -0.690170850984E+002     0.209773426221E+000    -0.454754253226E+002     0.124541161790E+000
     0.279370165569E-002    -0.664353913505E+002     0.196755598840E+000    -0.442456660966E+002     0.131579712923E+000
     0.296232359518E-002    -0.639617059784E+002     0.184335734490E+000    -0.430387273150E+002     0.138837053160E+000
     0.314106284138E-002    -0.615903611819E+002     0.172507118393E+000    -0.418559796266E+002     0.146318422948E+000
     0.333052643213E-002    -0.593160080689E+002     0.161268277151E+000    -0.406984244697E+002     0.154029353122E+000
     0.353135782749E-002    -0.571348555090E+002     0.151474288912E+000    -0.395660430656E+002     0.161975514990E+000
     0.374423909507E-002    -0.550386411685E+002     0.140437286990E+000    -0.384614668960E+002     0.170163295398E+000
     0.396989322653E-002    -0.530259668618E+002     0.130931312656E+000    -0.373827160360E+002     0.178598911456E+000
     0.420908659296E-002    -0.510920839736E+002     0.122116735951E+000    -0.363305628260E+002     0.187288990174E+000
     0.446263154769E-002    -0.492331693418E+002     0.113802323940E+000    -0.353050335153E+002     0.196240449802E+000
     0.473138918520E-002    -0.474450810541E+002     0.106074264205E+000    -0.343059559257E+002     0.205460481543E+000
     0.501627226558E-002    -0.457249178903E+002     0.988371300122E-001    -0.333329562492E+002     0.214956518542E+000
     0.531824831448E-002    -0.440689502704E+002     0.920942099217E-001    -0.323857411669E+002     0.224736276242E+000
     0.563834290904E-002    -0.424740756428E+002     0.858228797272E-001    -0.314637805364E+002     0.234807699782E+000
     0.597764316095E-002    -0.409371109592E+002     0.799773704976E-001    -0.305664233296E+002     0.245178930419E+000
     0.633730140856E-002    -0.394552908125E+002     0.745880007420E-001    -0.296930136945E+002     0.255858301384E+000
     0.671853913045E-002    -0.380246830961E+002     0.696259943447E-001    -0.288425514163E+002     0.266854202018E+000
     0.712265109384E-002    -0.366420065261E+002     0.649486327635E-001    -0.280134933876E+002     0.278174820259E+000
     0.755100975191E-002    -0.353022725284E+002     0.605436013583E-001    -0.272039001026E+002     0.289827875260E+000
     0.800506990496E-002    -0.339994368668E+002     0.564145115224E-001    -0.264107774570E+002     0.301819984272E+000
     0.848637364120E-002    -0.327253718475E+002     0.525555659521E-001    -0.256297558754E+002     0.314155707468E+000
     0.899655557408E-002    -0.314690793549E+002     0.489407747298E-001    -0.248545052291E+002     0.326836051570E+000
     0.953734839373E-002    -0.302160075657E+002     0.456201263902E-001    -0.240762756614E+002     0.339856351945E+000
     0.101105887516E-001    -0.289473597317E+002     0.424742522563E-001    -0.232834171142E+002     0.353203368513E+000
     0.107182234982E-001    -0.276386471463E+002     0.396741044938E-001    -0.224604812133E+002     0.366851158614E+000
     0.113623162948E-001    -0.262576390338E+002     0.366578085141E-001    -0.215879784305E+002     0.380755840060E+000
     0.120450546223E-001    -0.247734048109E+002     0.344343946461E-001    -0.206430792977E+002     0.394849681103E+000
     0.127687572104E-001    -0.231414195740E+002     0.320912773731E-001    -0.195977014092E+002     0.409032607349E+000
     0.135358819124E-001    -0.213198756254E+002     0.286900885510E-001    -0.184213137249E+002     0.423164069290E+000
     0.143490340526E-001    -0.192626763372E+002     0.241228881468E-001    -0.170810509051E+002     0.437053576241E+000
     0.152109752747E-001    -0.169302602883E+002     0.222075270662E-001    -0.155464176767E+002     0.450453688164E+000
     0.161246329208E-001    -0.143058396657E+002     0.196120665809E-001    -0.137984807643E+002     0.463060788354E+000
     0.170931099734E-001    -0.113974969419E+002     0.175989256763E-001    -0.118355891019E+002     0.474523297474E+000
     0.181196955938E-001    -0.827645954968E+001     0.152872317906E-001    -0.970066092288E+001     0.484481868851E+000
     0.192078762926E-001    -0.512530949669E+001     0.129186807992E-001    -0.751554986887E+001     0.492660157242E+000
     0.203613477710E-001    -0.225301287096E+001     0.103776550639E-001    -0.550089042804E+001     0.499005288748E+000
     0.215840274722E-001    -0.354127658660E-001     0.646063860560E-002    -0.392847517727E+001     0.503808562099E+000
     0.228800678855E-001     0.134255857694E+001    -0.773055356266E-003    -0.293808396622E+001     0.507616437789E+000
     0.242538706494E-001     0.201529621629E+001    -0.611389286503E-002    -0.246189712962E+001     0.510998609300E+000
     0.257101015006E-001     0.223365547063E+001    -0.140274129663E-001    -0.230693986321E+001     0.514358108403E+000
     0.272537061195E-001     0.224186926246E+001    -0.179994754463E-001    -0.230378226052E+001     0.517914345879E+000
     0.288899269272E-001     0.209984537530E+001    -0.240800788498E-001    -0.240399562601E+001     0.521848010869E+000
     0.306243208897E-001     0.191852264211E+001    -0.260044818779E-001    -0.253298078194E+001     0.526241428955E+000
     0.324627783907E-001     0.172505595577E+001    -0.262478263970E-001    -0.266917438501E+001     0.531148829884E+000
     0.344115432366E-001     0.154712809729E+001    -0.230348104881E-001    -0.279476042308E+001     0.536595345738E+000
     0.364772338618E-001     0.140578226422E+001    -0.164840780153E-001    -0.289354407030E+001     0.542572609589E+000
     0.386668658063E-001     0.129344024120E+001    -0.810841296484E-002    -0.297206406677E+001     0.549080360229E+000
     0.409878755421E-001     0.119979223171E+001    -0.617042278457E-003    -0.303738334845E+001     0.556130156698E+000
     0.434481457293E-001     0.111705597554E+001     0.436211451382E-002    -0.309528536541E+001     0.563745402565E+000
     0.460560319869E-001     0.104358247986E+001     0.627398157253E-002    -0.314716600210E+001     0.571952869842E+000
     0.488203912708E-001     0.980785353126E+000     0.411468516915E-002    -0.319137599724E+001     0.580774987041E+000
     0.517506119535E-001     0.947149515235E+000     0.522457223344E-002    -0.321553428823E+001     0.590197224555E+000
     0.548566457095E-001     0.940975439573E+000     0.543803477277E-002    -0.322011232852E+001     0.600199016408E+000
     0.581490413132E-001     0.971621813657E+000     0.637912622690E-002    -0.319843480668E+001     0.610729550048E+000
     0.616389804647E-001     0.104520905650E+001     0.780813132466E-002    -0.314623029849E+001     0.621709736160E+000
     0.653383157655E-001     0.115895016130E+001     0.714276527380E-002    -0.306530573543E+001     0.633049360661E+000
     0.692596109728E-001     0.132422889767E+001     0.922495375037E-002    -0.294882358875E+001     0.644612625049E+000
     0.734161836681E-001     0.151816713585E+001     0.822526416882E-002    -0.281193617587E+001     0.656300692182E+000
     0.778221504872E-001     0.172483030613E+001     0.473117442742E-002    -0.266613919577E+001     0.668047631509E+000
     0.824924750635E-001     0.191951492711E+001    -0.112554167660E-002    -0.252947508629E+001     0.679861102339E+000
     0.874430188470E-001     0.206151758367E+001    -0.905710037558E-002    -0.243001207360E+001     0.691891067062E+000
     0.926905949743E-001     0.212912787377E+001    -0.161559982448E-001    -0.238308278931E+001     0.704396762794E+000
     0.982530253690E-001     0.212779448490E+001    -0.188254916677E-001    -0.238435460801E+001     0.717659982717E+000
     0.104149201269E+000     0.208364855020E+001    -0.154779628385E-001    -0.241492924375E+001     0.731899122780E+000
     0.110399147386E+000     0.202412893282E+001    -0.806534461289E-002    -0.245595598774E+001     0.747248798138E+000
     0.117024089912E+000     0.196506322431E+001     0.263165550141E-003    -0.249662942627E+001     0.763788824688E+000
     0.124046528610E+000     0.192491066407E+001     0.765059133545E-002    -0.252408448768E+001     0.781514134694E+000
     0.131490313229E+000     0.192048961508E+001     0.131501648646E-001    -0.252660739785E+001     0.800321910713E+000
     0.139380724499E+000     0.195400992905E+001     0.157422215644E-001    -0.250254198892E+001     0.820068386901E+000
     0.147744559993E+000     0.202081280788E+001     0.147151418419E-001    -0.245589931230E+001     0.840609493454E+000
     0.156610225139E+000     0.211474293789E+001     0.107987551049E-001    -0.239011141654E+001     0.861799637210E+000
     0.166007829686E+000     0.223648547073E+001     0.599226763427E-002    -0.230469840830E+001     0.883458354659E+000
     0.175969289968E+000     0.237537616518E+001     0.121076520659E-002    -0.220705741599E+001     0.905443872757E+000
     0.185969289968E+000     0.248541563614E+001    -0.439654299409E-002    -0.212995099172E+001     0.926743428049E+000
     0.195969289968E+000     0.253201509275E+001    -0.104616896670E-001    -0.209797255621E+001     0.947723414450E+000
     0.205969289968E+000     0.251603369553E+001    -0.149483226083E-001    -0.211036311118E+001     0.968827574972E+000
     0.215969289968E+000     0.246887912560E+001    -0.156328761865E-001    -0.214373101330E+001     0.990265455101E+000
