 #        time                      h  [L]            Darcian flow [L.T^{-1}]   in    x         z              directions   cumulative flux
 #-----------------------------------------------------------------------------------------------

     0.100000000000E-005    -0.278499964870E+003     0.267707948416E-008    -0.251042897806E-003     0.251042897820E-009
     0.205999994278E-005    -0.278499695040E+003    -0.302842960664E-007    -0.212540043001E-002     0.250396723224E-008
     0.318359982147E-005    -0.278498549639E+003    -0.358133201843E-006    -0.984280868604E-002     0.135633458852E-007
     0.437461562859E-005    -0.278495002406E+003    -0.184535354208E-005    -0.329731570015E-001     0.528348971462E-007
     0.563709231599E-005    -0.278486059259E+003    -0.653583776125E-005    -0.892788095033E-001     0.165547313125E-006
     0.697531753239E-005    -0.278466613264E+003    -0.183012307622E-004    -0.207207326733E+000     0.442837383864E-006
     0.839383618521E-005    -0.278428843615E+003    -0.433769498271E-004    -0.427290428797E+000     0.104895683040E-005
     0.989746587602E-005    -0.278361772179E+003    -0.905890284107E-004    -0.801865099386E+000     0.225466500956E-005
     0.114913132622E-004    -0.278251073333E+003    -0.171124958257E-003    -0.139285633960E+001     0.447466546257E-005
     0.131807914004E-004    -0.278079195680E+003    -0.297790129859E-003    -0.226775382718E+001     0.830598600943E-005
     0.149716381303E-004    -0.277825807035E+003    -0.483787922688E-003    -0.349427302298E+001     0.145636934857E-004
     0.168699355614E-004    -0.277468527210E+003    -0.741142570192E-003    -0.513443255653E+001     0.243103737196E-004
     0.188821307298E-004    -0.276983875157E+003    -0.107893898255E-002    -0.723886126349E+001     0.388763755404E-004
     0.210150574931E-004    -0.276348333808E+003    -0.150158383452E-002    -0.984207130639E+001     0.598687930808E-004
     0.232759597402E-004    -0.275539429117E+003    -0.200730296824E-002    -0.129592353363E+002     0.891683577246E-004
     0.256725159928E-004    -0.274536728107E+003    -0.258708453448E-002    -0.165847424544E+002     0.128914626434E-003
     0.282128654833E-004    -0.273322680065E+003    -0.322425260092E-002    -0.206925392134E+002     0.181480908522E-003
     0.309056357980E-004    -0.271883250774E+003    -0.389480616527E-002    -0.252380362441E+002     0.249441144129E-003
     0.337599721774E-004    -0.270208326680E+003    -0.456857982582E-002    -0.301612075890E+002     0.335531377186E-003
     0.367855685763E-004    -0.268291890410E+003    -0.521117887199E-002    -0.353904375217E+002     0.442608558667E-003
     0.399927005860E-004    -0.266131988433E+003    -0.578652734662E-002    -0.408466708769E+002     0.573609225640E-003
     0.433922603327E-004    -0.263730524674E+003    -0.625976495148E-002    -0.464474795016E+002     0.731510208726E-003
     0.469957934698E-004    -0.261092920657E+003    -0.660016073481E-002    -0.521107470272E+002     0.919293013941E-003
     0.508155383889E-004    -0.258227684105E+003    -0.678369567509E-002    -0.577577756290E+002     0.113991298546E-002
     0.548644677845E-004    -0.255145925207E+003    -0.679500870827E-002    -0.633157151376E+002     0.139627384716E-002
     0.591563327122E-004    -0.251860854366E+003    -0.662849402801E-002    -0.687192960074E+002     0.169120778492E-002
     0.637057092900E-004    -0.248387288594E+003    -0.628845841603E-002    -0.739119080620E+002     0.202746088950E-002
     0.685280482021E-004    -0.244741186656E+003    -0.578837908290E-002    -0.788461065812E+002     0.240768353836E-002
     0.736397271730E-004    -0.240939226502E+003    -0.514941761953E-002    -0.834836476696E+002     0.283442514538E-002
     0.790581065897E-004    -0.236998432915E+003    -0.439842261008E-002    -0.877951599897E+002     0.331013263375E-002
     0.848015884613E-004    -0.232935858755E+003    -0.356568679675E-002    -0.917595547370E+002     0.383715197333E-002
     0.908896789166E-004    -0.228768319745E+003    -0.268271508496E-002    -0.953632641433E+002     0.441773215177E-002
     0.973430544509E-004    -0.224512180227E+003    -0.178021626669E-002    -0.985993840372E+002     0.505403100452E-002
     0.104183632148E-003    -0.220183185798E+003    -0.886466980230E-003    -0.101466780406E+003     0.574812239958E-002
     0.111434644115E-003    -0.215796337733E+003    -0.261253308934E-004    -0.103969205083E+003     0.650200434989E-002
     0.119120716386E-003    -0.211365803811E+003     0.780494059221E-003    -0.106114452546E+003     0.731760770113E-002
     0.127267952553E-003    -0.206904860108E+003     0.151772327202E-002    -0.107913578836E+003     0.819680511363E-002
     0.135904022424E-003    -0.202425858604E+003     0.217449577606E-002    -0.109380194824E+003     0.914142011880E-002
     0.145058255993E-003    -0.197940215878E+003     0.274404073482E-002    -0.110529839345E+003     0.101532360848E-001
     0.154761743052E-003    -0.193458418648E+003     0.322340517565E-002    -0.111379432853E+003     0.112340049706E-001
     0.165047438780E-003    -0.188990042469E+003     0.361288157852E-002    -0.111946808813E+003     0.123854557843E-001
     0.175950275662E-003    -0.184543780428E+003     0.391540229488E-002    -0.112250317907E+003     0.136093026913E-001
     0.187507282134E-003    -0.180127479162E+003     0.413594481330E-002    -0.112308498781E+003     0.149072527394E-001
     0.199757708333E-003    -0.175748180009E+003     0.428097629046E-002    -0.112139808503E+003     0.162810131884E-001
     0.212743159403E-003    -0.171412163479E+003     0.435795361434E-002    -0.111762405722E+003     0.177322984404E-001
     0.226507736794E-003    -0.167124995623E+003     0.437488641318E-002    -0.111193979719E+003     0.192628365809E-001
     0.241098188040E-003    -0.162891575347E+003     0.433996243831E-002    -0.110451618258E+003     0.208743755334E-001
     0.256564065527E-003    -0.158716181269E+003     0.426125751597E-002    -0.109551710493E+003     0.225686888677E-001
     0.272957894778E-003    -0.154602517554E+003     0.414649271063E-002    -0.108509878445E+003     0.243475812882E-001
     0.290335352846E-003    -0.150553758520E+003     0.400284678411E-002    -0.107340931203E+003     0.262128938204E-001
     0.308755457403E-003    -0.146572591664E+003     0.383683061486E-002    -0.106058838131E+003     0.281665087093E-001
     0.328280767180E-003    -0.142661258740E+003     0.365421708838E-002    -0.104676717922E+003     0.302103540545E-001
     0.348977594427E-003    -0.138821594633E+003     0.346001732365E-002    -0.103206840475E+003     0.323464082036E-001
     0.370916230124E-003    -0.135054053735E+003     0.336819651038E-002    -0.101666055991E+003     0.345768227700E-001
     0.394171182707E-003    -0.131360922263E+003     0.285991323659E-002    -0.100055277670E+003     0.369036035089E-001
     0.418821431115E-003    -0.127744552965E+003     0.290297201544E-002    -0.983853271788E+002     0.393288262646E-001
     0.444950693017E-003    -0.124203470275E+003     0.275573200188E-002    -0.966696874296E+002     0.418547338464E-001
     0.472647709137E-003    -0.120738204770E+003     0.256781645010E-002    -0.949157496546E+002     0.444836168957E-001
     0.502006544641E-003    -0.117346955604E+003     0.191650323428E-002    -0.931351484598E+002     0.472179563994E-001
     0.533126908594E-003    -0.114033574006E+003     0.130196161237E-002    -0.913228374884E+002     0.500599563396E-001
     0.566114492604E-003    -0.110793565858E+003     0.139747908720E-002    -0.895030064755E+002     0.530124442852E-001
     0.601081329767E-003    -0.107628719090E+003     0.178776243439E-002    -0.876695812881E+002     0.560779722589E-001
     0.638146175159E-003    -0.104538247822E+003     0.165939242562E-002    -0.858273702531E+002     0.592591504683E-001
     0.677434909153E-003    -0.101521332892E+003     0.148168306903E-002    -0.839817077833E+002     0.625586854463E-001
     0.719080964939E-003    -0.985777027426E+002     0.584395760032E-003    -0.821329852412E+002     0.659792003316E-001
     0.763225781689E-003    -0.957039705282E+002     0.103263812518E-002    -0.802949535869E+002     0.695238063440E-001
     0.810019284919E-003    -0.928998296476E+002     0.576831359555E-003    -0.784614685706E+002     0.731952933270E-001
     0.859620395664E-003    -0.901630240512E+002     0.428395399057E-003    -0.766372181209E+002     0.769965844703E-001
     0.912197570216E-003    -0.874933271418E+002     0.718985679937E-004    -0.748196140655E+002     0.809303883790E-001
     0.967929372233E-003    -0.848833146937E+002    -0.134065119859E-003    -0.730192497531E+002     0.849998827496E-001
     0.102700507918E-002    -0.823326194820E+002    -0.271589309157E-003    -0.712301483692E+002     0.892078541206E-001
     0.108962532517E-002    -0.798382624894E+002    -0.586006510107E-003    -0.694512354306E+002     0.935569075674E-001
     0.115600278233E-002    -0.773951642643E+002    -0.819495666573E-003    -0.676833863450E+002     0.980495586454E-001
     0.122636288312E-002    -0.750006828261E+002    -0.829243974089E-003    -0.659231064326E+002     0.102687915059E+000
     0.130094458593E-002    -0.726513378935E+002    -0.133404779579E-002    -0.641704522425E+002     0.107473856659E+000
     0.138000118665E-002    -0.703369734816E+002    -0.181255823556E-002    -0.624229053898E+002     0.112408799367E+000
     0.146380117888E-002    -0.680522735560E+002    -0.225224964977E-002    -0.606778003818E+002     0.117493598572E+000
     0.155262916586E-002    -0.657915243429E+002    -0.278500699489E-002    -0.589316637628E+002     0.122728379639E+000
     0.164678682697E-002    -0.635489797356E+002    -0.334504960997E-002    -0.571814055395E+002     0.128112447052E+000
     0.174659394236E-002    -0.613189088677E+002    -0.392144713472E-002    -0.554239655241E+002     0.133644153189E+000
     0.185238947896E-002    -0.590960129793E+002    -0.441216318822E-002    -0.536565267929E+002     0.139320774252E+000
     0.196453274170E-002    -0.568752172438E+002    -0.496870321846E-002    -0.518768726352E+002     0.145138416037E+000
     0.208340459379E-002    -0.546518915316E+002    -0.535187190716E-002    -0.500825643879E+002     0.151091823257E+000
     0.220940875020E-002    -0.524223387610E+002    -0.572346638892E-002    -0.482722636880E+002     0.157174329164E+000
     0.234297314879E-002    -0.501837661674E+002    -0.592619233783E-002    -0.464451365888E+002     0.163377745950E+000
     0.248455140365E-002    -0.479342392608E+002    -0.644149195735E-002    -0.446013258425E+002     0.169692323894E+000
     0.263462434571E-002    -0.456732924786E+002    -0.630626750033E-002    -0.427408766412E+002     0.176106573067E+000
     0.279370165569E-002    -0.434005629068E+002    -0.753951671618E-002    -0.408660560236E+002     0.182607435439E+000
     0.296232359518E-002    -0.411176388190E+002    -0.803642799320E-002    -0.389782862658E+002     0.189180029807E+000
     0.314106284138E-002    -0.388309412083E+002    -0.811623918520E-002    -0.370825058369E+002     0.195808129107E+000
     0.333052643213E-002    -0.365410320962E+002    -0.845301712950E-002    -0.351815289021E+002     0.202473748093E+000
     0.353135782749E-002    -0.342564151589E+002    -0.627940715356E-002    -0.332784485310E+002     0.209157105465E+000
     0.374423909507E-002    -0.319792347729E+002    -0.782722411533E-002    -0.313878939265E+002     0.215839000319E+000
     0.396989322653E-002    -0.297181604298E+002    -0.809203316685E-002    -0.295038971903E+002     0.222496676865E+000
     0.420908659296E-002    -0.274819469009E+002    -0.662650134018E-002    -0.276432231799E+002     0.229108752666E+000
     0.446263154769E-002    -0.252738891526E+002    -0.816794429686E-002    -0.257998653920E+002     0.235650178697E+000
     0.473138918520E-002    -0.231115123079E+002    -0.762032501015E-002    -0.239986529387E+002     0.242100000289E+000
     0.501627226558E-002    -0.209956722100E+002    -0.863155955135E-002    -0.222340634507E+002     0.248434109252E+000
     0.531824831448E-002    -0.189426832563E+002    -0.624631850174E-002    -0.205169009980E+002     0.254629722238E+000
     0.563834290904E-002    -0.169548728192E+002    -0.593568681843E-002    -0.188550454516E+002     0.260665120666E+000
     0.597764316095E-002    -0.150429731196E+002    -0.518781231928E-002    -0.172548743012E+002     0.266519704128E+000
     0.633730140856E-002    -0.132137292838E+002    -0.540899651236E-002    -0.157160636306E+002     0.272172116367E+000
     0.671853913045E-002    -0.114625509597E+002    -0.833846101493E-002    -0.142683355471E+002     0.277611745035E+000
     0.712265109384E-002    -0.982312927961E+001    -0.894681772503E-002    -0.129027469661E+002     0.282825900698E+000
     0.755100975191E-002    -0.829379202313E+001    -0.100857722543E-001    -0.116266444041E+002     0.287806276367E+000
     0.800506990496E-002    -0.687782568410E+001    -0.117326696605E-001    -0.104480647361E+002     0.292550329231E+000
     0.848637364120E-002    -0.557882493555E+001    -0.808183247748E-002    -0.936273241293E+001     0.297056649002E+000
     0.899655557408E-002    -0.444638015522E+001    -0.532760941722E-002    -0.841456490544E+001     0.301349608850E+000
     0.953734839373E-002    -0.343492266387E+001    -0.208413342183E-002    -0.757160426942E+001     0.305444278227E+000
     0.101105887516E-001    -0.255398553903E+001     0.283656297391E-002    -0.684096271776E+001     0.309365794481E+000
     0.107182234982E-001    -0.180644672331E+001     0.116175906475E-001    -0.622524865046E+001     0.313148478454E+000
     0.113623162948E-001    -0.120729262289E+001     0.114871627343E-001    -0.573125307738E+001     0.316839944692E+000
     0.120450546223E-001    -0.739874672109E+000     0.207148263096E-001    -0.535102894738E+001     0.320493324620E+000
     0.127687572104E-001    -0.409439460284E+000     0.260172509274E-001    -0.508236730185E+001     0.324171495183E+000
     0.135358819124E-001    -0.192108107756E+000     0.330492944157E-001    -0.491121760405E+001     0.327939096828E+000
     0.143490340526E-001    -0.694514059576E-001     0.389381135255E-001    -0.481771617216E+001     0.331856760995E+000
     0.152109752747E-001    -0.174409674620E-001     0.418891407830E-001    -0.478143743276E+001     0.335978237174E+000
     0.161246329208E-001    -0.112021119058E-001     0.417131365974E-001    -0.478155789445E+001     0.340347110340E+000
     0.170931099734E-001    -0.285501524522E-001     0.410353752821E-001    -0.479824959079E+001     0.344994274897E+000
     0.181196955938E-001    -0.530954013569E-001     0.358050176787E-001    -0.482131708891E+001     0.349943906175E+000
     0.192078762926E-001    -0.703311265294E-001     0.298171539946E-001    -0.483426192779E+001     0.355204556760E+000
     0.203613477710E-001    -0.674773892760E-001     0.221015078701E-001    -0.483239656363E+001     0.360778646667E+000
     0.215840274722E-001    -0.386389055031E-001     0.104727268367E-001    -0.480474030290E+001     0.366653319060E+000
     0.228800678855E-001     0.126257027201E-001     0.351937727583E-002    -0.475621566633E+001     0.372817568465E+000
     0.242538706494E-001     0.959300484697E-001    -0.459350982300E-002    -0.468163969790E+001     0.379249221118E+000
     0.257101015006E-001     0.201693295112E+000    -0.122373259972E-001    -0.459076171182E+001     0.385934453704E+000
     0.272537061195E-001     0.323661723764E+000    -0.217714142712E-001    -0.448596025887E+001     0.392859084230E+000
     0.288899269272E-001     0.450331490748E+000    -0.235535750687E-001    -0.437928894398E+001     0.400024671561E+000
     0.306243208897E-001     0.567026355786E+000    -0.193582397388E-001    -0.427885710133E+001     0.407445971432E+000
     0.324627783907E-001     0.671149618106E+000    -0.144003950033E-001    -0.418703762061E+001     0.415143707679E+000
     0.344115432366E-001     0.764881391360E+000    -0.200391073290E-003    -0.410677321804E+001     0.423146842966E+000
     0.364772338618E-001     0.837918390303E+000     0.108080368359E-001    -0.404468043063E+001     0.431501931243E+000
     0.386668658063E-001     0.894522368156E+000     0.192388741075E-001    -0.399555469787E+001     0.440250826865E+000
     0.409878755421E-001     0.935507551277E+000     0.217945034401E-001    -0.395787763639E+001     0.449437238668E+000
     0.434481457293E-001     0.972603359840E+000     0.252601266710E-001    -0.392597851253E+001     0.459096406485E+000
     0.460560319869E-001     0.101667734986E+001     0.262297332174E-001    -0.389012036025E+001     0.469241628523E+000
     0.488203912708E-001     0.107074627845E+001     0.201194317050E-001    -0.384250864087E+001     0.479863848563E+000
     0.517506119535E-001     0.113168856283E+001     0.123155643605E-001    -0.378723219156E+001     0.490961333337E+000
     0.548566457095E-001     0.121387297293E+001     0.315493317841E-002    -0.371645132864E+001     0.502504760775E+000
     0.581490413132E-001     0.131156233439E+001    -0.883427249992E-002    -0.363259051394E+001     0.514464721181E+000
     0.616389804647E-001     0.141858341636E+001    -0.199600233443E-001    -0.354123330929E+001     0.526823606266E+000
     0.653383157655E-001     0.152238350875E+001    -0.272707048758E-001    -0.345259522632E+001     0.539596312080E+000
     0.692596109728E-001     0.160848810682E+001    -0.298989933499E-001    -0.337859328638E+001     0.552845292503E+000
     0.734161836681E-001     0.167416528285E+001    -0.256030467726E-001    -0.332134476350E+001     0.566651113633E+000
     0.778221504872E-001     0.172802331866E+001    -0.172375310063E-001    -0.327324036795E+001     0.581073102062E+000
     0.824924750635E-001     0.178343323957E+001    -0.125857305691E-002    -0.322567079011E+001     0.596138032775E+000
     0.874430188470E-001     0.181799880909E+001     0.116051400735E-001    -0.319449852485E+001     0.611952641945E+000
     0.926905949743E-001     0.183507200562E+001     0.195811589424E-001    -0.317953405471E+001     0.628637805347E+000
     0.982530253690E-001     0.185534362738E+001     0.253000188438E-001    -0.316149135265E+001     0.646223944029E+000
     0.104149201269E+000     0.188295236408E+001     0.321721074832E-001    -0.313644004026E+001     0.664717919068E+000
     0.110399147386E+000     0.192207723725E+001     0.343898790307E-001    -0.310189315267E+001     0.684105775559E+000
     0.117024089912E+000     0.195604996221E+001     0.263702466392E-001    -0.307250242561E+001     0.704461677227E+000
     0.124046528610E+000     0.199554617266E+001     0.161105825170E-001    -0.303903865307E+001     0.725803439747E+000
     0.131490313229E+000     0.204460714127E+001     0.172628839953E-002    -0.299778001160E+001     0.748118272187E+000
     0.139380724499E+000     0.210711055272E+001    -0.110437768419E-001    -0.294427415632E+001     0.771349969599E+000
     0.147744559993E+000     0.217866001477E+001    -0.180074737142E-001    -0.288343993116E+001     0.795467057131E+000
     0.156610225139E+000     0.225718071892E+001    -0.175935483550E-001    -0.281499605162E+001     0.820424356934E+000
     0.166007829686E+000     0.229189347894E+001    -0.171698269527E-001    -0.278370056412E+001     0.846584971627E+000
     0.175969289968E+000     0.233424826221E+001    -0.558594003834E-002    -0.274694712962E+001     0.873948632932E+000
     0.185969289968E+000     0.234423871641E+001     0.780633054432E-002    -0.273734334979E+001     0.901322177740E+000
     0.195969289968E+000     0.238203771936E+001     0.166593003687E-001    -0.270400207334E+001     0.928362711656E+000
     0.205969289968E+000     0.239877757479E+001     0.149996785158E-001    -0.268847222216E+001     0.955247852310E+000
     0.215969289968E+000     0.242008660122E+001     0.146957096163E-001    -0.266956144107E+001     0.981943871211E+000
