 #        time                      h  [L]            Darcian flow [L.T^{-1}]   in    x         z              directions   cumulative flux
 #-----------------------------------------------------------------------------------------------

     0.100000000000E-005    -0.278499999997E+003    -0.243182714958E-009    -0.182474072752E-008     0.184087385649E-014
     0.205999994278E-005    -0.278499999981E+003    -0.169525338133E-008    -0.127363779147E-007     0.154604998535E-013
     0.318359982147E-005    -0.278499999923E+003    -0.690495691390E-008    -0.519381987692E-007     0.743317181116E-013
     0.437461562859E-005    -0.278499999760E+003    -0.214619843281E-007    -0.161630198781E-006     0.268525513936E-012
     0.563709231599E-005    -0.278499999367E+003    -0.563735945293E-007    -0.425084583426E-006     0.809883533375E-012
     0.697531753239E-005    -0.278499998516E+003    -0.131832035878E-006    -0.995377630497E-006     0.215355515853E-011
     0.839383618521E-005    -0.278499996807E+003    -0.283059158226E-006    -0.214009333620E-005     0.521575615154E-011
     0.989746587602E-005    -0.278499993562E+003    -0.569222624438E-006    -0.430971252294E-005     0.117522466978E-010
     0.114913132622E-004    -0.278499987676E+003    -0.108685064869E-005    -0.824080972219E-005     0.250005789574E-010
     0.131807914004E-004    -0.278499977377E+003    -0.198978197783E-005    -0.151099970374E-004     0.507489819797E-010
     0.149716381303E-004    -0.278499959881E+003    -0.351853552813E-005    -0.267613013308E-004     0.990868294543E-010
     0.168699355614E-004    -0.278499930888E+003    -0.604315008430E-005    -0.460390356296E-004     0.187232292829E-009
     0.188821307298E-004    -0.278499883840E+003    -0.101251269199E-004    -0.772710945782E-004     0.344045958936E-009
     0.210150574931E-004    -0.278499808851E+003    -0.166062183555E-004    -0.126965031362E-003     0.617159595121E-009
     0.232759597402E-004    -0.278499691180E+003    -0.267345586476E-004    -0.204802480071E-003     0.108412645946E-008
     0.256725159928E-004    -0.278499509048E+003    -0.423421454726E-004    -0.325047810658E-003     0.186970332960E-008
     0.282128654833E-004    -0.278499230575E+003    -0.660920439451E-004    -0.508525730057E-003     0.317240132625E-008
     0.309056357980E-004    -0.278498809495E+003    -0.101818974029E-003    -0.785371260977E-003     0.530492431753E-008
     0.337599721774E-004    -0.278498179224E+003    -0.154993217468E-003    -0.119881558129E-002     0.875522754411E-008
     0.367855685763E-004    -0.278497244753E+003    -0.233345089220E-003    -0.181034416843E-002     0.142779115137E-007
     0.399927005860E-004    -0.278495871641E+003    -0.347695600734E-003    -0.270665134980E-002     0.230298296980E-007
     0.433922603327E-004    -0.278493871242E+003    -0.513048361843E-003    -0.400891953097E-002     0.367695424654E-007
     0.469957934698E-004    -0.278490981073E+003    -0.750008014730E-003    -0.588507334536E-002     0.581481235935E-007
     0.508155383889E-004    -0.278486838949E+003    -0.108660102887E-002    -0.856579857590E-002     0.911294936191E-007
     0.548644677845E-004    -0.278480949258E+003    -0.156058449234E-002    -0.123652700968E-001     0.141592756023E-006
     0.591563327122E-004    -0.278472639407E+003    -0.222233598382E-002    -0.177076956347E-001     0.218187968316E-006
     0.637057092900E-004    -0.278461004143E+003    -0.313842040524E-002    -0.251609415559E-001     0.333541595399E-006
     0.685280482021E-004    -0.278444835147E+003    -0.439592489777E-002    -0.354786472001E-001     0.505939945965E-006
     0.736397271730E-004    -0.278422533053E+003    -0.610763740443E-002    -0.496523362246E-001     0.761659712907E-006
     0.790581065897E-004    -0.278391998849E+003    -0.841811496520E-002    -0.689750776173E-001     0.113816597372E-005
     0.848015884613E-004    -0.278350501649E+003    -0.115106420132E-001    -0.951182208308E-001     0.168846140204E-005
     0.908896789166E-004    -0.278294519975E+003    -0.156150153871E-001    -0.130222623879E+000     0.248694784055E-005
     0.973430544509E-004    -0.278219554153E+003    -0.210160104858E-001    -0.177005616222E+000     0.363725475921E-005
     0.104183632148E-003    -0.278119908185E+003    -0.280622792959E-001    -0.238884700100E+000     0.528260057701E-005
     0.111434644115E-003    -0.277988440682E+003    -0.371752979141E-001    -0.320118691917E+000     0.761938450514E-005
     0.119120716386E-003    -0.277816286322E+003    -0.488578016863E-001    -0.425966598983E+000     0.109148602864E-004
     0.127267952553E-003    -0.277592552143E+003    -0.637008930499E-001    -0.562863919693E+000     0.155299196970E-004
     0.135904022424E-003    -0.277303997160E+003    -0.823886465595E-001    -0.738615094033E+000     0.219482114197E-004
     0.145058255993E-003    -0.276934709664E+003    -0.105698533434E+000    -0.962599330460E+000     0.308130345690E-004
     0.154761743052E-003    -0.276465804323E+003    -0.134495318805E+000    -0.124598480366E+001     0.429736647664E-004
     0.165047438780E-003    -0.275875170669E+003    -0.169715243261E+000    -0.160194306226E+001     0.595429751106E-004
     0.175950275662E-003    -0.275137315022E+003    -0.212336325110E+000    -0.204585117449E+001     0.819683739630E-004
     0.187507282134E-003    -0.274223348145E+003    -0.263329640651E+000    -0.259546334717E+001     0.112118148573E-003
     0.199757708333E-003    -0.273101178572E+003    -0.323585740756E+000    -0.327102602137E+001     0.152385206248E-003
     0.212743159403E-003    -0.271735973796E+003    -0.393810428554E+000    -0.409530021642E+001     0.205809836797E-003
     0.226507736794E-003    -0.270090944813E+003    -0.474385621416E+000    -0.509344162308E+001     0.276222329335E-003
     0.241098188040E-003    -0.268128490631E+003    -0.565194668518E+000    -0.629267241773E+001     0.368404854778E-003
     0.256564065527E-003    -0.265811706805E+003    -0.665417817843E+000    -0.772165966372E+001     0.488269704572E-003
     0.272957894778E-003    -0.263106216718E+003    -0.773312547719E+000    -0.940949612333E+001     0.643047448400E-003
     0.290335352846E-003    -0.259982230542E+003    -0.886004458766E+000    -0.113841665519E+002     0.841473558710E-003
     0.308755457403E-003    -0.256416681510E+003    -0.999325793348E+000    -0.136703877784E+002     0.109395544915E-002
     0.328280767180E-003    -0.252395240704E+003    -0.110774825342E+001    -0.162867520448E+002     0.141269403512E-002
     0.348977594427E-003    -0.247913979672E+003    -0.120446237783E+001    -0.192422014909E+002     0.181172599168E-002
     0.370916230124E-003    -0.242980446906E+003    -0.128165538203E+001    -0.225320325395E+002     0.230684708949E-002
     0.394171182707E-003    -0.237613963843E+003    -0.133103108324E+001    -0.261338653295E+002     0.291537661756E-002
     0.418821431115E-003    -0.231845041361E+003    -0.134459531350E+001    -0.300042690656E+002     0.365573159324E-002
     0.444950693017E-003    -0.225713968297E+003    -0.131569258959E+001    -0.340769174539E+002     0.454679970714E-002
     0.472647709137E-003    -0.219268769452E+003    -0.124021939841E+001    -0.382631872739E+002     0.560713237276E-002
     0.502006544641E-003    -0.212562879908E+003    -0.111783817459E+001    -0.424558579471E+002     0.685401889263E-002
     0.533126908594E-003    -0.205652942522E+003    -0.952909230559E+000    -0.465360327911E+002     0.830254075682E-002
     0.566114492604E-003    -0.198597048571E+003    -0.754792411815E+000    -0.503827124187E+002     0.996473121143E-002
     0.601081329767E-003    -0.191453537647E+003    -0.537206889834E+000    -0.538837765948E+002     0.118489700889E-001
     0.638146175159E-003    -0.184280221496E+003    -0.316528545489E+000    -0.569466663447E+002     0.139597220777E-001
     0.677434909153E-003    -0.177133696950E+003    -0.109235360951E+000    -0.595069412267E+002     0.162976784015E-001
     0.719080964939E-003    -0.170068364943E+003     0.709239722644E-001    -0.615331537952E+002     0.188602932593E-001
     0.763225781689E-003    -0.163134921300E+003     0.215235637614E+000    -0.630271017162E+002     0.216426293386E-001
     0.810019284919E-003    -0.156378382913E+003     0.321066181246E+000    -0.640194244842E+002     0.246383601579E-001
     0.859620395664E-003    -0.149836027416E+003     0.391319063746E+000    -0.645615687216E+002     0.278407445007E-001
     0.912197570216E-003    -0.143535798850E+003     0.432572179522E+000    -0.647160583158E+002     0.312434080046E-001
     0.967929372233E-003    -0.137495668203E+003     0.452668092676E+000    -0.645473683757E+002     0.348408376200E-001
     0.102700507918E-002    -0.131724154325E+003     0.458660262316E+000    -0.641152585158E+002     0.386285887587E-001
     0.108962532517E-002    -0.126221838656E+003     0.455714255673E+000    -0.634713308659E+002     0.426032815546E-001
     0.115600278233E-002    -0.120983421391E+003     0.447025527861E+000    -0.626583897911E+002     0.467624919838E-001
     0.122636288312E-002    -0.115999788410E+003     0.434373553244E+000    -0.617114669705E+002     0.511046245802E-001
     0.130094458593E-002    -0.111259691636E+003     0.418805612970E+000    -0.606593506736E+002     0.556288100712E-001
     0.138000118665E-002    -0.106750889183E+003     0.401111684357E+000    -0.595259038089E+002     0.603348325194E-001
     0.146380117888E-002    -0.102460812712E+003     0.382018838374E+000    -0.583309719337E+002     0.652230723430E-001
     0.155262916586E-002    -0.983769427491E+002     0.362209860005E+000    -0.570909885559E+002     0.702944519938E-001
     0.164678682697E-002    -0.944870864846E+002     0.342293343989E+000    -0.558194131801E+002     0.755503762007E-001
     0.174659394236E-002    -0.907795016766E+002     0.322736756794E+000    -0.545273446487E+002     0.809926885056E-001
     0.185238947896E-002    -0.872430820368E+002     0.303887653245E+000    -0.532239194235E+002     0.866236334021E-001
     0.196453274170E-002    -0.838675045392E+002     0.285962549804E+000    -0.519166672816E+002     0.924458261802E-001
     0.208340459379E-002    -0.806432806600E+002     0.269040579981E+000    -0.506118425368E+002     0.984622346423E-001
     0.220940875020E-002    -0.775617242422E+002     0.253089439352E+000    -0.493146744292E+002     0.104676170425E+000
     0.234297314879E-002    -0.746148716203E+002     0.238010863004E+000    -0.480295285276E+002     0.111091284284E+000
     0.248455140365E-002    -0.717953816910E+002     0.223692688818E+000    -0.467600150491E+002     0.117711561364E+000
     0.263462434571E-002    -0.690964358769E+002     0.210046639451E+000    -0.455090734152E+002     0.124541314646E+000
     0.279370165569E-002    -0.665116519713E+002     0.197020905850E+000    -0.442790490327E+002     0.131585176382E+000
     0.296232359518E-002    -0.640350205017E+002     0.184592918126E+000    -0.430717689752E+002     0.138848088303E+000
     0.314106284138E-002    -0.616608670653E+002     0.172755697702E+000    -0.418886170247E+002     0.146335291808E+000
     0.333052643213E-002    -0.593838362943E+002     0.161507716673E+000    -0.407306058876E+002     0.154052319321E+000
     0.353135782749E-002    -0.572000864439E+002     0.151757266338E+000    -0.395977270986E+002     0.162004844509E+000
     0.374423909507E-002    -0.551014693704E+002     0.140677955629E+000    -0.384926088956E+002     0.170199254608E+000
     0.396989322653E-002    -0.530864803540E+002     0.131148888433E+000    -0.374133041530E+002     0.178641773131E+000
     0.420908659296E-002    -0.511504925804E+002     0.122280702336E+000    -0.363605802478E+002     0.187339031908E+000
     0.446263154769E-002    -0.492893394556E+002     0.113997388158E+000    -0.353344947027E+002     0.196297961392E+000
     0.473138918520E-002    -0.474994478210E+002     0.106228345889E+000    -0.343347679108E+002     0.205525736665E+000
     0.501627226558E-002    -0.457772256668E+002     0.989869340228E-001    -0.333611915916E+002     0.215029817527E+000
     0.531824831448E-002    -0.441193683522E+002     0.922426632887E-001    -0.324133499609E+002     0.224817912515E+000
     0.563834290904E-002    -0.425227149239E+002     0.859648119941E-001    -0.314907659975E+002     0.234897974047E+000
     0.597764316095E-002    -0.409841821579E+002     0.801267631618E-001    -0.305928502799E+002     0.245278171457E+000
     0.633730140856E-002    -0.395006953768E+002     0.747091051955E-001    -0.297188166617E+002     0.255966822752E+000
     0.671853913045E-002    -0.380685739223E+002     0.697400112517E-001    -0.288677643121E+002     0.266972335570E+000
     0.712265109384E-002    -0.366845089702E+002     0.650567771697E-001    -0.280381602912E+002     0.278302922076E+000
     0.755100975191E-002    -0.353435369161E+002     0.606465305715E-001    -0.272280828529E+002     0.289966336040E+000
     0.800506990496E-002    -0.340396573500E+002     0.565112188489E-001    -0.264345712489E+002     0.301969248934E+000
     0.848637364120E-002    -0.327648452768E+002     0.526095496249E-001    -0.256532672341E+002     0.314316288265E+000
     0.899655557408E-002    -0.315081146778E+002     0.490187976947E-001    -0.248779844682E+002     0.327008611105E+000
     0.953734839373E-002    -0.302553551397E+002     0.457282059976E-001    -0.241000202186E+002     0.340041752454E+000
     0.101105887516E-001    -0.289872192690E+002     0.425514056535E-001    -0.233077778683E+002     0.353402733646E+000
     0.107182234982E-001    -0.276801437766E+002     0.398191774558E-001    -0.224860251068E+002     0.367066045237E+000
     0.113623162948E-001    -0.263015692706E+002     0.367199538381E-001    -0.216152319133E+002     0.380988280498E+000
     0.120450546223E-001    -0.248211883549E+002     0.344778194185E-001    -0.206729641343E+002     0.395102525085E+000
     0.127687572104E-001    -0.231942620500E+002     0.321016373983E-001    -0.196310430189E+002     0.409309580720E+000
     0.135358819124E-001    -0.213753373510E+002     0.282727797893E-001    -0.184574615230E+002     0.423468772002E+000
     0.143490340526E-001    -0.193299817010E+002     0.242718938130E-001    -0.171242968970E+002     0.437393444661E+000
     0.152109752747E-001    -0.170173050019E+002     0.196475777657E-001    -0.156007668617E+002     0.450840399379E+000
     0.161246329208E-001    -0.143980115306E+002     0.193083690397E-001    -0.138591267714E+002     0.463502908811E+000
     0.170931099734E-001    -0.115004889661E+002     0.174806531409E-001    -0.119045688920E+002     0.475032223034E+000
     0.181196955938E-001    -0.838934012512E+001     0.156214530841E-001    -0.977732501423E+001     0.485069497110E+000
     0.192078762926E-001    -0.523908936688E+001     0.127318560244E-001    -0.759447747694E+001     0.493333672531E+000
     0.203613477710E-001    -0.235794147318E+001     0.104064797104E-001    -0.557401482798E+001     0.499763150861E+000
     0.215840274722E-001    -0.114526807546E+000     0.655661754721E-002    -0.398428395756E+001     0.504634660576E+000
     0.228800678855E-001     0.129501390039E+001    -0.106471463440E-003    -0.297096657730E+001     0.508485153329E+000
     0.242538706494E-001     0.199348188781E+001    -0.583109610705E-002    -0.247708345928E+001     0.511888186860E+000
     0.257101015006E-001     0.222649350628E+001    -0.135158304158E-001    -0.231166585179E+001     0.515254563530E+000
     0.272537061195E-001     0.223314121391E+001    -0.180139423253E-001    -0.230967091846E+001     0.518819890662E+000
     0.288899269272E-001     0.210431920200E+001    -0.239469604253E-001    -0.240083341184E+001     0.522748379653E+000
     0.306243208897E-001     0.192641180140E+001    -0.269652708974E-001    -0.252802955505E+001     0.527133228271E+000
     0.324627783907E-001     0.173080274860E+001    -0.263688790050E-001    -0.266498500138E+001     0.532032929766E+000
     0.344115432366E-001     0.155229317938E+001    -0.232998971646E-001    -0.279122136773E+001     0.537472553356E+000
     0.364772338618E-001     0.140994436913E+001    -0.166965895290E-001    -0.289065300640E+001     0.543443847779E+000
     0.386668658063E-001     0.129668014297E+001    -0.831868091546E-002    -0.296981693379E+001     0.549946679317E+000
     0.409878755421E-001     0.120246301083E+001    -0.776673227521E-003    -0.303553119196E+001     0.556992176998E+000
     0.434481457293E-001     0.111936742458E+001     0.431144844938E-002    -0.309369338562E+001     0.564603505994E+000
     0.460560319869E-001     0.104570039400E+001     0.655708812216E-002    -0.314578019657E+001     0.572807360760E+000
     0.488203912708E-001     0.982413081494E+000     0.400804870132E-002    -0.319000170119E+001     0.581625678539E+000
     0.517506119535E-001     0.946509670021E+000     0.376543041646E-002    -0.321612461537E+001     0.591049639864E+000
     0.548566457095E-001     0.947697145487E+000     0.679179639587E-002    -0.321550396643E+001     0.601037126005E+000
     0.581490413132E-001     0.971555210629E+000     0.640164810996E-002    -0.319846863694E+001     0.611567771176E+000
     0.616389804647E-001     0.104424059956E+001     0.780106870861E-002    -0.314690179801E+001     0.622550300712E+000
     0.653383157655E-001     0.115727584412E+001     0.710289798417E-002    -0.306646451217E+001     0.633894211563E+000
     0.692596109728E-001     0.132203350524E+001     0.917280590149E-002    -0.295041236800E+001     0.645463705355E+000
     0.734161836681E-001     0.151579485684E+001     0.826688817729E-002    -0.281359599971E+001     0.657158672144E+000
     0.778221504872E-001     0.172248240246E+001     0.473550537244E-002    -0.266777772725E+001     0.668912830809E+000
     0.824924750635E-001     0.191758257572E+001    -0.104711323069E-002    -0.253082011400E+001     0.680732583197E+000
     0.874430188470E-001     0.206036235309E+001    -0.896731252930E-002    -0.243080791506E+001     0.692766486093E+000
     0.926905949743E-001     0.212885570797E+001    -0.160952652366E-001    -0.238326373163E+001     0.705273129155E+000
     0.982530253690E-001     0.212725392631E+001    -0.187882732819E-001    -0.238465129725E+001     0.718537997708E+000
     0.104149201269E+000     0.208423065976E+001    -0.155266757743E-001    -0.241452760026E+001     0.732774771502E+000
     0.110399147386E+000     0.202481875988E+001    -0.813962708380E-002    -0.245548451886E+001     0.748121501753E+000
     0.117024089912E+000     0.196567517697E+001     0.196887205548E-003    -0.249620891192E+001     0.764658742379E+000
     0.124046528610E+000     0.192531655794E+001     0.756687561098E-002    -0.252382203121E+001     0.782382207537E+000
     0.131490313229E+000     0.192053150509E+001     0.131177876712E-001    -0.252658126967E+001     0.801189787813E+000
     0.139380724499E+000     0.195453567048E+001     0.157953269709E-001    -0.250236919342E+001     0.820934903241E+000
     0.147744559993E+000     0.202038633498E+001     0.147318297779E-001    -0.245619456806E+001     0.841478480057E+000
     0.156610225139E+000     0.211420086093E+001     0.108147732898E-001    -0.239054453976E+001     0.862672464341E+000
     0.166007829686E+000     0.223577383790E+001     0.601882948440E-002    -0.230519527751E+001     0.884335851804E+000
     0.175969289968E+000     0.237465780601E+001     0.123846124480E-002    -0.220755745518E+001     0.906326351175E+000
     0.185969289968E+000     0.248493241256E+001    -0.436384689579E-002    -0.213028406891E+001     0.927629236561E+000
     0.195969289968E+000     0.253194238800E+001    -0.104305453569E-001    -0.209801707353E+001     0.948609666578E+000
     0.205969289968E+000     0.251254318833E+001    -0.148081399483E-001    -0.211260240517E+001     0.969736209606E+000
     0.215969289968E+000     0.246878687033E+001    -0.156157894530E-001    -0.214378898428E+001     0.991174668184E+000
