 #        time                      h  [L]            Darcian flow [L.T^{-1}]   in    x         z              directions   cumulative flux
 #-----------------------------------------------------------------------------------------------

     0.100000000000E-005    -0.278500000000E+003    -0.810538051185E-014    -0.832707248472E-013     0.836642743936E-019
     0.205999994278E-005    -0.278500000000E+003    -0.676369321382E-013    -0.543671838288E-012     0.664398980060E-018
     0.318359982147E-005    -0.278500000000E+003    -0.288098757848E-012    -0.220662717424E-011     0.316480746297E-017
     0.437461562859E-005    -0.278500000000E+003    -0.913230966212E-012    -0.685413202066E-011     0.114003279493E-016
     0.563709231599E-005    -0.278500000000E+003    -0.240606967428E-011    -0.179883997132E-010     0.343125128299E-016
     0.697531753239E-005    -0.278499999999E+003    -0.562689919839E-011    -0.420383109364E-010     0.910709588676E-016
     0.839383618521E-005    -0.278499999999E+003    -0.120810448530E-010    -0.901830443745E-010     0.220140046020E-015
     0.989746587602E-005    -0.278499999998E+003    -0.242723642318E-010    -0.181178231689E-009     0.494998862035E-015
     0.114913132622E-004    -0.278499999996E+003    -0.462743745412E-010    -0.345522121547E-009     0.105062524928E-014
     0.131807914004E-004    -0.278499999992E+003    -0.845560919300E-010    -0.631660590474E-009     0.212732110963E-014
     0.149716381303E-004    -0.278499999986E+003    -0.149199766793E-009    -0.111506242186E-008     0.414202350163E-014
     0.168699355614E-004    -0.278499999976E+003    -0.255638238776E-009    -0.191138234956E-008     0.780270363215E-014
     0.188821307298E-004    -0.278499999960E+003    -0.427182119152E-009    -0.319544642563E-008     0.142897669608E-013
     0.210150574931E-004    -0.278499999935E+003    -0.698623559076E-009    -0.522840094094E-008     0.255406779040E-013
     0.232759597402E-004    -0.278499999895E+003    -0.112138688182E-008    -0.839640227193E-008     0.446926792372E-013
     0.256725159928E-004    -0.278499999834E+003    -0.177075555129E-008    -0.132653602284E-007     0.767658513948E-013
     0.282128654833E-004    -0.278499999742E+003    -0.275611573952E-008    -0.206581602171E-007     0.129709791735E-012
     0.309056357980E-004    -0.278499999603E+003    -0.423530694367E-008    -0.317631435865E-007     0.215997645518E-012
     0.337599721774E-004    -0.278499999396E+003    -0.643465077202E-008    -0.482858609412E-007     0.355040134578E-012
     0.367855685763E-004    -0.278499999091E+003    -0.967689944841E-008    -0.726608346738E-007     0.576823559063E-012
     0.399927005860E-004    -0.278499998644E+003    -0.144200598888E-007    -0.108346150573E-006     0.927368024134E-012
     0.433922603327E-004    -0.278499997993E+003    -0.213111936222E-007    -0.160232253579E-006     0.147688392899E-011
     0.469957934698E-004    -0.278499997053E+003    -0.312608129871E-007    -0.235207952476E-006     0.233191676247E-011
     0.508155383889E-004    -0.278499995700E+003    -0.455455225659E-007    -0.342942549699E-006     0.365337178540E-011
     0.548644677845E-004    -0.278499993766E+003    -0.659494440011E-007    -0.496964603268E-006     0.568318673839E-011
     0.591563327122E-004    -0.278499991011E+003    -0.949586392507E-007    -0.716147618875E-006     0.878369767589E-011
     0.637057092900E-004    -0.278499987104E+003    -0.136028136530E-006    -0.102675319785E-005     0.134955996505E-010
     0.685280482021E-004    -0.278499981584E+003    -0.193948125612E-006    -0.146523749578E-005     0.206231026895E-010
     0.736397271730E-004    -0.278499973813E+003    -0.275345619495E-006    -0.208210188182E-005     0.313588010550E-010
     0.790581065897E-004    -0.278499962905E+003    -0.389370965545E-006    -0.294717150937E-005     0.474664589696E-010
     0.848015884613E-004    -0.278499947639E+003    -0.548636540287E-006    -0.415682529805E-005     0.715481590471E-010
     0.908896789166E-004    -0.278499926327E+003    -0.770499183756E-006    -0.584389123068E-005     0.107434203453E-009
     0.973430544509E-004    -0.278499896645E+003    -0.107881077860E-005    -0.819118054929E-005     0.160751456085E-009
     0.104183632148E-003    -0.278499855391E+003    -0.150630598353E-005    -0.114499865424E-004     0.239750844162E-009
     0.111434644115E-003    -0.278499798166E+003    -0.209785619967E-005    -0.159653517006E-004     0.356510928408E-009
     0.119120716386E-003    -0.278499718923E+003    -0.291489958029E-005    -0.222105534323E-004     0.528686722951E-009
     0.127267952553E-003    -0.278499609364E+003    -0.404146479532E-005    -0.308341294256E-004     0.782048342948E-009
     0.135904022424E-003    -0.278499458105E+003    -0.559234991570E-005    -0.427239319606E-004     0.115416262818E-008
     0.145058255993E-003    -0.278499249553E+003    -0.772420695562E-005    -0.590942580035E-004     0.169972689428E-008
     0.154761743052E-003    -0.278498962357E+003    -0.106505303127E-004    -0.816041652553E-004     0.249828753946E-008
     0.165047438780E-003    -0.278498567321E+003    -0.146618677942E-004    -0.112517796401E-003     0.366539564260E-008
     0.175950275662E-003    -0.278498024564E+003    -0.201529841213E-004    -0.154921069353E-003     0.536870633482E-008
     0.187507282134E-003    -0.278497279684E+003    -0.276592284069E-004    -0.213013662631E-003     0.785117320633E-008
     0.199757708333E-003    -0.278496258592E+003    -0.379050122274E-004    -0.292501085725E-003     0.114643984640E-007
     0.212743159403E-003    -0.278494860571E+003    -0.518681200289E-004    -0.401119080655E-003     0.167164767812E-007
     0.226507736794E-003    -0.278492948999E+003    -0.708645773969E-004    -0.549332015046E-003     0.243404555377E-007
     0.241098188040E-003    -0.278490338994E+003    -0.966600246672E-004    -0.751258722799E-003     0.353920152412E-007
     0.256564065527E-003    -0.278486781039E+003    -0.131615012009E-003    -0.102589390430E-002     0.513884046560E-007
     0.272957894778E-003    -0.278481939382E+003    -0.178873367904E-003    -0.139871123585E-002     0.745053827706E-007
     0.290335352846E-003    -0.278475363684E+003    -0.242604811403E-003    -0.190375631160E-002     0.107855369750E-006
     0.308755457403E-003    -0.278466452001E+003    -0.328315293113E-003    -0.258636406861E-002     0.155878776256E-006
     0.328280767180E-003    -0.278454402699E+003    -0.443241225676E-003    -0.350666729693E-002     0.224892331738E-006
     0.348977594427E-003    -0.278438152344E+003    -0.596847104323E-003    -0.474410208765E-002     0.323854187050E-006
     0.370916230124E-003    -0.278416295793E+003    -0.801451618821E-003    -0.640316896649E-002     0.465427073437E-006
     0.394171182707E-003    -0.278386982867E+003    -0.107305294881E-002    -0.862083737021E-002     0.667451293031E-006
     0.418821431115E-003    -0.278347783462E+003    -0.143240156134E-002    -0.115761822688E-001     0.954983280737E-006
     0.444950693017E-003    -0.278295514584E+003    -0.190626560649E-002    -0.155027287971E-001     0.136310900971E-005
     0.472647709137E-003    -0.278226027006E+003    -0.252884992798E-002    -0.207036210088E-001     0.194079932332E-005
     0.502006544641E-003    -0.278133949372E+003    -0.334337672669E-002    -0.275697196867E-001     0.275614424889E-005
     0.533126908594E-003    -0.278012386145E+003    -0.440380810431E-002    -0.366009107127E-001     0.390339307492E-005
     0.566114492604E-003    -0.277852566502E+003    -0.577666322452E-002    -0.484309326158E-001     0.551233693575E-005
     0.601081329767E-003    -0.277643443530E+003    -0.754285713516E-002    -0.638560034500E-001     0.776070289865E-005
     0.638146175159E-003    -0.277371246210E+003    -0.979945935976E-002    -0.838675071982E-001     0.108903870186E-004
     0.677434909153E-003    -0.277018990789E+003    -0.126612425105E-001    -0.109689019600E+000     0.152285443599E-004
     0.719080964939E-003    -0.276565961400E+003    -0.162619226917E-001    -0.142818175988E+000     0.212147909977E-004
     0.763225781689E-003    -0.275987158251E+003    -0.207549867840E-001    -0.185075541551E+000     0.294361306143E-004
     0.810019284919E-003    -0.275252749960E+003    -0.263134166588E-001    -0.238660539049E+000     0.406715663424E-004
     0.859620395664E-003    -0.274327640339E+003    -0.331270316595E-001    -0.306209543289E+000     0.559485220141E-004
     0.912197570216E-003    -0.273171260847E+003    -0.413963687593E-001    -0.390852066241E+000     0.766133580794E-004
     0.967929372233E-003    -0.271737668585E+003    -0.513221822322E-001    -0.496264138096E+000     0.104418560186E-003
     0.102700507918E-002    -0.269976043514E+003    -0.630892468815E-001    -0.626716671811E+000     0.141629411520E-003
     0.108962532517E-002    -0.267831705925E+003    -0.768427641234E-001    -0.787112454325E+000     0.191152914294E-003
     0.115600278233E-002    -0.265247778155E+003    -0.926557607482E-001    -0.983000482506E+000     0.256691201371E-003
     0.122636288312E-002    -0.262167579134E+003    -0.110486708120E+000    -0.122055070293E+001     0.342920406547E-003
     0.130094458593E-002    -0.258537755126E+003    -0.130128429734E+000    -0.150646620694E+001     0.455693609685E-003
     0.138000118665E-002    -0.254312010529E+003    -0.151152298446E+000    -0.184780475844E+001     0.602262701949E-003
     0.146380117888E-002    -0.249455123746E+003    -0.172855451613E+000    -0.225167923375E+001     0.791508586004E-003
     0.155262916586E-002    -0.243946753827E+003    -0.194222476252E+000    -0.272481017040E+001     0.103416207824E-002
     0.164678682697E-002    -0.237784416560E+003    -0.213915774127E+000    -0.327291772471E+001     0.134298988250E-002
     0.174659394236E-002    -0.230984922819E+003    -0.230312718759E+000    -0.389997803412E+001     0.173291359215E-002
     0.185238947896E-002    -0.223583121311E+003    -0.241602066012E+000    -0.460750826283E+001     0.222103709194E-002
     0.196453274170E-002    -0.215629596284E+003    -0.245900924977E+000    -0.539377754339E+001     0.282654117225E-002
     0.208340459379E-002    -0.207189439251E+003    -0.241391140340E+000    -0.625271572582E+001     0.357036675428E-002
     0.220940875020E-002    -0.198339051407E+003    -0.226608059831E+000    -0.717309949212E+001     0.447465801522E-002
     0.234297314879E-002    -0.189159110558E+003    -0.200727443424E+000    -0.813885263566E+001     0.556204952868E-002
     0.248455140365E-002    -0.179732899930E+003    -0.163624553759E+000    -0.912914486084E+001     0.685474551268E-002
     0.263462434571E-002    -0.170150416239E+003    -0.116031979896E+000    -0.101177807628E+002     0.837325048424E-002
     0.279370165569E-002    -0.160507454147E+003    -0.598812412943E-001    -0.110742692283E+002     0.101349411970E-001
     0.296232359518E-002    -0.150900232437E+003     0.156473800468E-002    -0.119671376103E+002     0.121528631682E-001
     0.314106284138E-002    -0.141421718544E+003     0.639998300425E-001    -0.127677953249E+002     0.144349979503E-001
     0.333052643213E-002    -0.132160118475E+003     0.122731176702E+000    -0.134538108507E+002     0.169841113233E-001
     0.353135782749E-002    -0.123197242026E+003     0.173529502600E+000    -0.140112452254E+002     0.197982250542E-001
     0.374423909507E-002    -0.114605324408E+003     0.213416311273E+000    -0.144358590963E+002     0.228716848494E-001
     0.396989322653E-002    -0.106441912669E+003     0.241096889875E+000    -0.147332282836E+002     0.261967437935E-001
     0.420908659296E-002    -0.987379644991E+002     0.256158953529E+000    -0.149201479517E+002     0.297660701459E-001
     0.446263154769E-002    -0.914905955076E+002     0.261294914941E+000    -0.150241592865E+002     0.335759459870E-001
     0.473138918520E-002    -0.847183629496E+002     0.261215236181E+000    -0.150536191741E+002     0.376223301640E-001
     0.501627226558E-002    -0.784520126604E+002     0.258505442274E+000    -0.150040005938E+002     0.418973504326E-001
     0.531824831448E-002    -0.726936285537E+002     0.253667700023E+000    -0.148818494353E+002     0.463919653318E-001
     0.563834290904E-002    -0.674021945919E+002     0.246925926643E+000    -0.147104756091E+002     0.511013723796E-001
     0.597764316095E-002    -0.625455055842E+002     0.239617608022E+000    -0.144996509877E+002     0.560217793574E-001
     0.633730140856E-002    -0.581006910086E+002     0.232167080325E+000    -0.142514318451E+002     0.611481044627E-001
     0.671853913045E-002    -0.540356626948E+002     0.224133310279E+000    -0.139739004450E+002     0.664761676591E-001
     0.712265109384E-002    -0.503103316397E+002     0.215507220830E+000    -0.136783831428E+002     0.720044519421E-001
     0.755100975191E-002    -0.468833686788E+002     0.206277577350E+000    -0.133745150024E+002     0.777342226025E-001
     0.800506990496E-002    -0.437044351503E+002     0.194154429163E+000    -0.130752309099E+002     0.836718184431E-001
     0.848637364120E-002    -0.407427273307E+002     0.182772249982E+000    -0.127809419059E+002     0.898239624975E-001
     0.899655557408E-002    -0.379686867172E+002     0.169141809654E+000    -0.124936878267E+002     0.961986004007E-001
     0.953734839373E-002    -0.353695938898E+002     0.159234608466E+000    -0.122092669398E+002     0.102801845818E+000
     0.101105887516E-001    -0.329591759205E+002     0.153466371565E+000    -0.119123023889E+002     0.109631024959E+000
     0.107182234982E-001    -0.307346888044E+002     0.148302100214E+000    -0.116047609935E+002     0.116683056740E+000
     0.113623162948E-001    -0.286706919602E+002     0.142221750153E+000    -0.112995341387E+002     0.123961581748E+000
     0.120450546223E-001    -0.267177565644E+002     0.129571537813E+000    -0.110156412981E+002     0.131482902523E+000
     0.127687572104E-001    -0.248389132676E+002     0.123767641480E+000    -0.107601735378E+002     0.139270583083E+000
     0.135358819124E-001    -0.231013375203E+002     0.121403366103E+000    -0.104800145411E+002     0.147310600527E+000
     0.143490340526E-001    -0.214943803182E+002     0.113380357503E+000    -0.101957059445E+002     0.155601773247E+000
     0.152109752747E-001    -0.200135073353E+002     0.110164032217E+000    -0.990958912234E+001     0.164143784392E+000
     0.161246329208E-001    -0.186487740964E+002     0.109066003930E+000    -0.962396383240E+001     0.172937357164E+000
     0.170931099734E-001    -0.173713551864E+002     0.104833033020E+000    -0.935087253758E+001     0.181994031740E+000
     0.181196955938E-001    -0.161637742822E+002     0.996553355073E-001    -0.909153208662E+001     0.191327828528E+000
     0.192078762926E-001    -0.149956730243E+002     0.939820102772E-001    -0.885608136532E+001     0.200965387971E+000
     0.203613477710E-001    -0.138886042903E+002     0.903607005186E-001    -0.862188759615E+001     0.210911035566E+000
     0.215840274722E-001    -0.128697655986E+002     0.872944427616E-001    -0.837702635478E+001     0.221154011748E+000
     0.228800678855E-001    -0.119213820631E+002     0.820799853229E-001    -0.813847467409E+001     0.231702340253E+000
     0.242538706494E-001    -0.109832077567E+002     0.620254180082E-001    -0.793346247116E+001     0.242601686015E+000
     0.257101015006E-001    -0.100511369627E+002     0.717431530043E-001    -0.775103002145E+001     0.253889458556E+000
     0.272537061195E-001    -0.923286188153E+001     0.759380735542E-001    -0.752001116016E+001     0.265497974345E+000
     0.288899269272E-001    -0.847199910148E+001     0.686179533389E-001    -0.730613636749E+001     0.277452953911E+000
     0.306243208897E-001    -0.777792092233E+001     0.711728994054E-001    -0.709037344622E+001     0.289751074345E+000
     0.324627783907E-001    -0.713889961305E+001     0.691204775102E-001    -0.687910767410E+001     0.302398659851E+000
     0.344115432366E-001    -0.651064316190E+001     0.578011732111E-001    -0.669234791328E+001     0.315440958626E+000
     0.364772338618E-001    -0.587988281879E+001     0.537791389802E-001    -0.652115687085E+001     0.328912109309E+000
     0.386668658063E-001    -0.527991158606E+001     0.623429352100E-001    -0.634763170640E+001     0.342811756802E+000
     0.409878755421E-001    -0.474363368670E+001     0.632424107590E-001    -0.615589672107E+001     0.357100407006E+000
     0.434481457293E-001    -0.423342466274E+001     0.563913976643E-001    -0.597553743064E+001     0.371802498223E+000
     0.460560319869E-001    -0.366738112057E+001     0.130248841074E-001    -0.583367713050E+001     0.387016102563E+000
     0.488203912708E-001    -0.310139238430E+001     0.757693076198E-001    -0.570395238617E+001     0.402785267389E+000
     0.517506119535E-001    -0.261302476090E+001     0.531962591726E-001    -0.549928035669E+001     0.418900126335E+000
     0.548566457095E-001    -0.214725176267E+001     0.817244707405E-001    -0.530533280364E+001     0.435380624089E+000
     0.581490413132E-001    -0.169147370818E+001     0.731238568927E-001    -0.509227867572E+001     0.452148148499E+000
     0.616389804647E-001    -0.114945819469E+001     0.728862420939E-001    -0.493917317919E+001     0.469387439079E+000
     0.653383157655E-001    -0.583621633316E+000     0.884604879674E-001    -0.478514227270E+001     0.487092309356E+000
     0.692596109728E-001    -0.295402791548E-001     0.102311619803E+000    -0.481038590332E+001     0.505959518540E+000
     0.734161836681E-001     0.527212882535E+000     0.250699587350E-001    -0.450456495285E+001     0.524683360199E+000
     0.778221504872E-001     0.110296574160E+001     0.163145285863E-001    -0.347219885079E+001     0.539981921995E+000
     0.824924750635E-001     0.161185844003E+001    -0.553342577781E-002    -0.302984202100E+001     0.554132291247E+000
     0.874430188470E-001     0.211131130178E+001    -0.244737715001E-002    -0.263107449473E+001     0.567157546366E+000
     0.926905949743E-001     0.253733201300E+001    -0.518077598753E-002    -0.230250993793E+001     0.579240173134E+000
     0.982530253690E-001     0.277840483988E+001    -0.751347987079E-002    -0.211418548683E+001     0.591000257009E+000
     0.104149201269E+000     0.274575418743E+001    -0.910211225667E-002    -0.213973956942E+001     0.603616652037E+000
     0.110399147386E+000     0.256095720864E+001    -0.237270417073E-002    -0.228278032164E+001     0.617883913750E+000
     0.117024089912E+000     0.245592395871E+001     0.530218381149E-002    -0.236361944039E+001     0.633542796095E+000
     0.124046528610E+000     0.244777728207E+001     0.382631781460E-002    -0.237025813149E+001     0.650187810212E+000
     0.131490313229E+000     0.246540207969E+001     0.311979329695E-002    -0.235624015844E+001     0.667727169835E+000
     0.139380724499E+000     0.253183722110E+001     0.384737942983E-002    -0.230478108416E+001     0.685912865814E+000
     0.147744559993E+000     0.262634356588E+001     0.337317065265E-002    -0.223151553586E+001     0.704576915982E+000
     0.156610225139E+000     0.273212911980E+001     0.120180614346E-002    -0.214976600106E+001     0.723636024467E+000
     0.166007829686E+000     0.281781884532E+001    -0.342997206289E-002    -0.208352098779E+001     0.743216157308E+000
     0.175969289968E+000     0.284096346252E+001    -0.845114180791E-002    -0.206612549623E+001     0.763797956549E+000
     0.185969289968E+000     0.279230294643E+001    -0.700415814134E-002    -0.210390965568E+001     0.784837169694E+000
     0.195969289968E+000     0.273371166915E+001    -0.639264269643E-003    -0.214829053735E+001     0.806320076019E+000
     0.205969289968E+000     0.271023465149E+001     0.365946486107E-002    -0.216606624683E+001     0.827980769399E+000
     0.215969289968E+000     0.271115638731E+001     0.720943791270E-002    -0.216501190135E+001     0.849631008449E+000
