 #        time                      h  [L]            Darcian flow [L.T^{-1}]   in    x         z              directions   cumulative flux
 #-----------------------------------------------------------------------------------------------

     0.100000000000E-005    -0.278499999997E+003    -0.246381104402E-009    -0.184902787295E-008     0.186537066653E-014
     0.205999994278E-005    -0.278499999981E+003    -0.171772288496E-008    -0.129059337262E-007     0.156662970729E-013
     0.318359982147E-005    -0.278499999922E+003    -0.699675293574E-008    -0.526305746519E-007     0.753222762988E-013
     0.437461562859E-005    -0.278499999756E+003    -0.217476376839E-007    -0.163788023363E-006     0.272108496353E-012
     0.563709231599E-005    -0.278499999358E+003    -0.571250154160E-007    -0.430768644304E-006     0.820704942795E-012
     0.697531753239E-005    -0.278499998496E+003    -0.133592185021E-006    -0.100871119211E-005     0.218237467513E-011
     0.839383618521E-005    -0.278499996764E+003    -0.286845557339E-006    -0.216881853251E-005     0.528567535960E-011
     0.989746587602E-005    -0.278499993476E+003    -0.576853010948E-006    -0.436768925464E-005     0.119100931961E-010
     0.114913132622E-004    -0.278499987510E+003    -0.110145447354E-005    -0.835194745420E-005     0.253370847595E-010
     0.131807914004E-004    -0.278499977070E+003    -0.201658923225E-005    -0.153143394511E-004     0.514336778759E-010
     0.149716381303E-004    -0.278499959335E+003    -0.356607783710E-005    -0.271243141860E-004     0.100427177232E-009
     0.168699355614E-004    -0.278499929945E+003    -0.612506607271E-005    -0.466656166384E-004     0.189772199198E-009
     0.188821307298E-004    -0.278499882249E+003    -0.102628466785E-004    -0.783264806830E-004     0.348727512453E-009
     0.210150574931E-004    -0.278499806222E+003    -0.168329114403E-004    -0.128705684990E-003     0.625585187868E-009
     0.232759597402E-004    -0.278499686914E+003    -0.271008778328E-004    -0.207621263021E-003     0.109897863432E-008
     0.256725159928E-004    -0.278499502237E+003    -0.429244885121E-004    -0.329539383543E-003     0.189540990513E-008
     0.282128654833E-004    -0.278499219856E+003    -0.670042951939E-004    -0.515580223543E-003     0.321617799540E-008
     0.309056357980E-004    -0.278498792842E+003    -0.103228980005E-003    -0.796306935239E-003     0.537839200386E-008
     0.337599721774E-004    -0.278498153662E+003    -0.157145599523E-003    -0.121556450088E-002     0.887689540498E-008
     0.367855685763E-004    -0.278497205948E+003    -0.236592405143E-003    -0.183570895932E-002     0.144769493353E-007
     0.399927005860E-004    -0.278495813351E+003    -0.352540338840E-003    -0.274465598339E-002     0.233517397038E-007
     0.433922603327E-004    -0.278493784561E+003    -0.520198788513E-003    -0.406528291491E-002     0.372845988054E-007
     0.469957934698E-004    -0.278490853421E+003    -0.760451492407E-003    -0.596784140907E-002     0.589638020362E-007
     0.508155383889E-004    -0.278486652725E+003    -0.110169905359E-002    -0.868617855628E-002     0.924085948296E-007
     0.548644677845E-004    -0.278480680072E+003    -0.158219431745E-002    -0.125387197656E-001     0.143579571358E-006
     0.591563327122E-004    -0.278472253775E+003    -0.225296420834E-002    -0.179553299278E-001     0.221245693263E-006
     0.637057092900E-004    -0.278460456517E+003    -0.318141418378E-002    -0.255113288533E-001     0.338205316208E-006
     0.685280482021E-004    -0.278444064138E+003    -0.445570629466E-002    -0.359700764371E-001     0.512990969620E-006
     0.736397271730E-004    -0.278421456672E+003    -0.618998568660E-002    -0.503356429619E-001     0.772228843869E-006
     0.790581065897E-004    -0.278390508600E+003    -0.853050011984E-002    -0.699171210607E-001     0.115387562997E-005
     0.848015884613E-004    -0.278348455296E+003    -0.116626103824E-001    -0.964061038576E-001     0.171161927681E-005
     0.908896789166E-004    -0.278291732811E+003    -0.158186249817E-001    -0.131968744442E+000     0.252080822774E-005
     0.973430544509E-004    -0.278215788633E+003    -0.212863092658E-001    -0.179353631858E+000     0.368636774941E-005
     0.104183632148E-003    -0.278114861807E+003    -0.284178143119E-001    -0.242016478717E+000     0.535327418880E-005
     0.111434644115E-003    -0.277981732084E+003    -0.376386361327E-001    -0.324262311361E+000     0.772029053609E-005
     0.119120716386E-003    -0.277807439651E+003    -0.494560333849E-001    -0.431405442124E+000     0.110578213256E-004
     0.127267952553E-003    -0.277580979916E+003    -0.644660740100E-001    -0.569946883702E+000     0.157309223396E-004
     0.135904022424E-003    -0.277288982080E+003    -0.833581136923E-001    -0.747767881376E+000     0.222286991269E-004
     0.145058255993E-003    -0.276915386202E+003    -0.106914997791E+000    -0.974336702259E+000     0.312015424538E-004
     0.154761743052E-003    -0.276441141339E+003    -0.136006598661E+000    -0.126092354147E+001     0.435078671537E-004
     0.165047438780E-003    -0.275843956892E+003    -0.171573448107E+000    -0.162081519143E+001     0.602722238812E-004
     0.175950275662E-003    -0.275098149841E+003    -0.214596242015E+000    -0.206951674071E+001     0.829568096906E-004
     0.187507282134E-003    -0.274174640688E+003    -0.266046016788E+000    -0.262492169274E+001     0.113448464736E-003
     0.199757708333E-003    -0.273041158439E+003    -0.326809118380E+000    -0.330742405673E+001     0.154163135571E-003
     0.212743159403E-003    -0.271662716817E+003    -0.397581201041E+000    -0.413993559072E+001     0.208169402558E-003
     0.226507736794E-003    -0.270002416639E+003    -0.478726078967E+000    -0.514775792076E+001     0.279331855356E-003
     0.241098188040E-003    -0.268022609806E+003    -0.570099027150E+000    -0.635824250796E+001     0.372473644649E-003
     0.256564065527E-003    -0.265686427116E+003    -0.670840598217E+000    -0.780015211540E+001     0.493555168938E-003
     0.272957894778E-003    -0.262959626250E+003    -0.779156184502E+000    -0.950261830977E+001     0.649862261900E-003
     0.290335352846E-003    -0.259812662275E+003    -0.892107630520E+000    -0.114935771098E+002     0.850192151145E-003
     0.308755457403E-003    -0.256222827646E+003    -0.100545458308E+001    -0.137975712657E+002     0.110501877744E-002
     0.328280767180E-003    -0.252176260523E+003    -0.111359277367E+001    -0.164328512258E+002     0.142661117336E-002
     0.348977594427E-003    -0.247669588940E+003    -0.120964181217E+001    -0.194078091089E+002     0.182907069827E-002
     0.370916230124E-003    -0.242710976247E+003    -0.128573440080E+001    -0.227169556154E+002     0.232824731073E-002
     0.394171182707E-003    -0.237320375267E+003    -0.133355013901E+001    -0.263368901055E+002     0.294149506530E-002
     0.418821431115E-003    -0.231528897526E+003    -0.134511596521E+001    -0.302229698363E+002     0.368723627377E-002
     0.444950693017E-003    -0.225377356685E+003    -0.131385723084E+001    -0.343075629329E+002     0.458432469054E-002
     0.472647709137E-003    -0.218914193038E+003    -0.123582006163E+001    -0.385007964229E+002     0.565123107150E-002
     0.502006544641E-003    -0.212193134846E+003    -0.111088309753E+001    -0.426944367386E+002     0.690511424602E-002
     0.533126908594E-003    -0.205271005605E+003    -0.943670263780E+000    -0.467689885990E+002     0.836087843932E-002
     0.566114492604E-003    -0.198205990859E+003    -0.743813525519E+000    -0.506034025531E+002     0.100303427529E-001
     0.601081329767E-003    -0.191056467968E+003    -0.525257962389E+000    -0.540861128979E+002     0.119216522370E-001
     0.638146175159E-003    -0.183880248944E+003    -0.304501414424E+000    -0.571256790536E+002     0.140390367790E-001
     0.677434909153E-003    -0.176733891538E+003    -0.979985948462E-001    -0.596592069485E+002     0.163829746534E-001
     0.719080964939E-003    -0.169671695666E+003     0.806759951481E-001    -0.616570129431E+002     0.189507482521E-001
     0.763225781689E-003    -0.162744162412E+003     0.223094681031E+000    -0.631226270663E+002     0.217373024604E-001
     0.810019284919E-003    -0.155995997532E+003     0.326947043260E+000    -0.640881518665E+002     0.247362506256E-001
     0.859620395664E-003    -0.149464053953E+003     0.395411404064E+000    -0.646060558904E+002     0.279408427768E-001
     0.912197570216E-003    -0.143175771642E+003     0.435230269179E+000    -0.647393812983E+002     0.313447334464E-001
     0.967929372233E-003    -0.137148595655E+003     0.454284439212E+000    -0.645526740280E+002     0.349424593809E-001
     0.102700507918E-002    -0.131390559450E+003     0.459569209699E+000    -0.641054580150E+002     0.387296319475E-001
     0.108962532517E-002    -0.125901847004E+003     0.456149875647E+000    -0.634489567496E+002     0.427029239029E-001
     0.115600278233E-002    -0.120676869249E+003     0.447128902633E+000    -0.626255814478E+002     0.468599567021E-001
     0.122636288312E-002    -0.115706324306E+003     0.434225345196E+000    -0.616700228912E+002     0.511991732877E-001
     0.130094458593E-002    -0.110978854212E+003     0.418458686433E+000    -0.606107939004E+002     0.557197372396E-001
     0.138000118665E-002    -0.106482157767E+003     0.400610491385E+000    -0.594715332578E+002     0.604214611674E-001
     0.146380117888E-002    -0.102203636887E+003     0.381405576554E+000    -0.582718960270E+002     0.653047502002E-001
     0.155262916586E-002    -0.981307618905E+002     0.361525029312E+000    -0.570281468913E+002     0.703705474789E-001
     0.164678682697E-002    -0.942513429351E+002     0.341570438982E+000    -0.557535997074E+002     0.756202745423E-001
     0.174659394236E-002    -0.905536492034E+002     0.322002892182E+000    -0.544592364997E+002     0.810557888550E-001
     0.185238947896E-002    -0.870265987464E+002     0.303163718759E+000    -0.531540920884E+002     0.866793460143E-001
     0.196453274170E-002    -0.836599015361E+002     0.285261488190E+000    -0.518456116973E+002     0.924935700753E-001
     0.208340459379E-002    -0.804441047539E+002     0.268367684762E+000    -0.505399812341E+002     0.985014359469E-001
     0.220940875020E-002    -0.773705565658E+002     0.252444181678E+000    -0.492423727939E+002     0.104706261126E+000
     0.234297314879E-002    -0.744313240249E+002     0.237389617684E+000    -0.479571020084E+002     0.111111701088E+000
     0.248455140365E-002    -0.716190921680E+002     0.223091545304E+000    -0.466877343660E+002     0.117721744505E+000
     0.263462434571E-002    -0.689270640059E+002     0.209463122122E+000    -0.454371689355E+002     0.124540706581E+000
     0.279370165569E-002    -0.663488751131E+002     0.196454290776E+000    -0.442077149194E+002     0.131573220390E+000
     0.296232359518E-002    -0.638785312357E+002     0.184043688198E+000    -0.430011673282E+002     0.138824227037E+000
     0.314106284138E-002    -0.615103719969E+002     0.172224869326E+000    -0.418188819747E+002     0.146298965866E+000
     0.333052643213E-002    -0.592390558954E+002     0.160996436658E+000    -0.406618475192E+002     0.154002965890E+000
     0.353135782749E-002    -0.570595558407E+002     0.150357965321E+000    -0.395307507022E+002     0.161942039140E+000
     0.374423909507E-002    -0.549671535041E+002     0.140308803835E+000    -0.384260315784E+002     0.170122275982E+000
     0.396989322653E-002    -0.529574262050E+002     0.130846852594E+000    -0.373479274032E+002     0.178550041824E+000
     0.420908659296E-002    -0.510262261981E+002     0.121965667948E+000    -0.362965064197E+002     0.187231974399E+000
     0.446263154769E-002    -0.491695833231E+002     0.113673467258E+000    -0.352717203796E+002     0.196174987589E+000
     0.473138918520E-002    -0.473837689721E+002     0.105939426691E+000    -0.342732912074E+002     0.205386240367E+000
     0.501627226558E-002    -0.456657881211E+002     0.986939986586E-001    -0.333009786440E+002     0.214873167406E+000
     0.531824831448E-002    -0.440119004459E+002     0.919499386405E-001    -0.323544585213E+002     0.224643478411E+000
     0.563834290904E-002    -0.424190104645E+002     0.856809310157E-001    -0.314331910397E+002     0.234705110331E+000
     0.597764316095E-002    -0.408839350645E+002     0.798431540935E-001    -0.305365186852E+002     0.245066194231E+000
     0.633730140856E-002    -0.394039106601E+002     0.744563181373E-001    -0.296637808794E+002     0.255735051287E+000
     0.671853913045E-002    -0.379749801380E+002     0.695010149549E-001    -0.288139676990E+002     0.266720054646E+000
     0.712265109384E-002    -0.365938557563E+002     0.648293241916E-001    -0.279855169241E+002     0.278029367182E+000
     0.755100975191E-002    -0.352555096101E+002     0.604292208228E-001    -0.271764642957E+002     0.289670669737E+000
     0.800506990496E-002    -0.339538435744E+002     0.562978381170E-001    -0.263837977015E+002     0.301650528232E+000
     0.848637364120E-002    -0.326806718228E+002     0.524139446514E-001    -0.256030238794E+002     0.313973385107E+000
     0.899655557408E-002    -0.314248145879E+002     0.488369678806E-001    -0.248278482771E+002     0.326640129235E+000
     0.953734839373E-002    -0.301717453876E+002     0.455200968770E-001    -0.240493985088E+002     0.339645894563E+000
     0.101105887516E-001    -0.289022128328E+002     0.423834612903E-001    -0.232558094686E+002     0.352977085245E+000
     0.107182234982E-001    -0.275918712378E+002     0.396780573280E-001    -0.224316511500E+002     0.366607357230E+000
     0.113623162948E-001    -0.262078041011E+002     0.365829957083E-001    -0.215570525842E+002     0.380492119508E+000
     0.120450546223E-001    -0.247186933645E+002     0.342824701548E-001    -0.206090445248E+002     0.394562723567E+000
     0.127687572104E-001    -0.230780389938E+002     0.312642785374E-001    -0.195582582227E+002     0.408717103746E+000
     0.135358819124E-001    -0.212521298147E+002     0.292425724497E-001    -0.183774827109E+002     0.422814942541E+000
     0.143490340526E-001    -0.191835701847E+002     0.241171034842E-001    -0.170304490259E+002     0.436663302501E+000
     0.152109752747E-001    -0.168402421716E+002     0.220664493009E-001    -0.154877740944E+002     0.450012866981E+000
     0.161246329208E-001    -0.142028415147E+002     0.196782335562E-001    -0.137300912699E+002     0.462557482736E+000
     0.170931099734E-001    -0.112804426922E+002     0.175977850866E-001    -0.117571916769E+002     0.473944065832E+000
     0.181196955938E-001    -0.815032865990E+001     0.153403451859E-001    -0.961508060219E+001     0.483814781879E+000
     0.192078762926E-001    -0.499478667511E+001     0.128369118694E-001    -0.742554801335E+001     0.491895131980E+000
     0.203613477710E-001    -0.213447198896E+001     0.998668759367E-002    -0.541830567718E+001     0.498145003656E+000
     0.215840274722E-001     0.531153736668E-001     0.625720628969E-002    -0.386556234073E+001     0.502871354456E+000
     0.228800678855E-001     0.139492375042E+001    -0.100855556696E-003    -0.290133389891E+001     0.506631600444E+000
     0.242538706494E-001     0.203910569144E+001    -0.636666083066E-002    -0.244530011050E+001     0.509990971880E+000
     0.257101015006E-001     0.224067806313E+001    -0.142809590911E-001    -0.230221299024E+001     0.513343589963E+000
     0.272537061195E-001     0.225221125974E+001    -0.183314910595E-001    -0.229759528521E+001     0.516890281539E+000
     0.288899269272E-001     0.209462601113E+001    -0.243566120096E-001    -0.240766080001E+001     0.520829947814E+000
     0.306243208897E-001     0.191162176142E+001    -0.261084048439E-001    -0.253786454498E+001     0.525231837674E+000
     0.324627783907E-001     0.171802511214E+001    -0.264432202921E-001    -0.267438143032E+001     0.530148814611E+000
     0.344115432366E-001     0.154107729196E+001    -0.228438439162E-001    -0.279899720828E+001     0.535603583634E+000
     0.364772338618E-001     0.140109443632E+001    -0.162505074831E-001    -0.289679131138E+001     0.541587552445E+000
     0.386668658063E-001     0.128979485267E+001    -0.787389265616E-002    -0.297459202970E+001     0.548100836994E+000
     0.409878755421E-001     0.119681330240E+001    -0.451419402749E-003    -0.303945254331E+001     0.555155436016E+000
     0.434481457293E-001     0.111635093272E+001     0.532401179258E-002    -0.309632240353E+001     0.562773236977E+000
     0.460560319869E-001     0.104069751680E+001     0.606607186644E-002    -0.314912147297E+001     0.570985802826E+000
     0.488203912708E-001     0.979227320800E+000     0.415469654073E-002    -0.319243553632E+001     0.579810849113E+000
     0.517506119535E-001     0.946162699859E+000     0.526348502709E-002    -0.321620755763E+001     0.589235059638E+000
     0.548566457095E-001     0.940313474676E+000     0.544221742635E-002    -0.322055386198E+001     0.599238222929E+000
     0.581490413132E-001     0.972143627383E+000     0.643047339584E-002    -0.319804766108E+001     0.609767482274E+000
     0.616389804647E-001     0.104656266602E+001     0.784561986276E-002    -0.314527971173E+001     0.620744351232E+000
     0.653383157655E-001     0.116104439311E+001     0.716714018321E-002    -0.306384066655E+001     0.632078556177E+000
     0.692596109728E-001     0.132687442403E+001     0.914940491658E-002    -0.294709181347E+001     0.643635028872E+000
     0.734161836681E-001     0.152107255773E+001     0.818043825224E-002    -0.280989638573E+001     0.655314616961E+000
     0.778221504872E-001     0.172765103046E+001     0.466046481677E-002    -0.266417775335E+001     0.667052913703E+000
     0.824924750635E-001     0.192012160772E+001    -0.177810844954E-002    -0.252868486095E+001     0.678862695674E+000
     0.874430188470E-001     0.206287569896E+001    -0.916362012893E-002    -0.242907366919E+001     0.690888016796E+000
     0.926905949743E-001     0.212944088916E+001    -0.162284776177E-001    -0.238287262622E+001     0.703392612290E+000
     0.982530253690E-001     0.212842767993E+001    -0.188716473227E-001    -0.238401396623E+001     0.716653939506E+000
     0.104149201269E+000     0.208379204175E+001    -0.154688984476E-001    -0.241500661785E+001     0.730893535428E+000
     0.110399147386E+000     0.202330828953E+001    -0.792805731922E-002    -0.245651277386E+001     0.746246687857E+000
     0.117024089912E+000     0.196436186001E+001     0.340839691087E-003    -0.249710966546E+001     0.762789896026E+000
     0.124046528610E+000     0.192453763253E+001     0.767966321553E-002    -0.252435253855E+001     0.780517089015E+000
     0.131490313229E+000     0.192045276736E+001     0.131888327668E-001    -0.252662680086E+001     0.799325010964E+000
     0.139380724499E+000     0.195474674531E+001     0.157373722179E-001    -0.250222093584E+001     0.819068953721E+000
     0.147744559993E+000     0.202130802707E+001     0.146944552402E-001    -0.245555373719E+001     0.839607168956E+000
     0.156610225139E+000     0.211547162073E+001     0.107537807674E-001    -0.238966029327E+001     0.860793311447E+000
     0.166007829686E+000     0.223732979204E+001     0.602364450460E-002    -0.230410032887E+001     0.882446409170E+000
     0.175969289968E+000     0.237620230457E+001     0.117851750512E-002    -0.220646397993E+001     0.904426015605E+000
     0.185969289968E+000     0.248598909941E+001    -0.443553179300E-002    -0.212956064949E+001     0.925721668292E+000
     0.195969289968E+000     0.253209493820E+001    -0.104981385937E-001    -0.209792311328E+001     0.946701162090E+000
     0.205969289968E+000     0.251593437773E+001    -0.149739996723E-001    -0.211043853990E+001     0.967806078701E+000
     0.215969289968E+000     0.246858335400E+001    -0.156150186403E-001    -0.214392944570E+001     0.989245941799E+000
