 #        time                      h  [L]            Darcian flow [L.T^{-1}]   in    x         z              directions   cumulative flux
 #-----------------------------------------------------------------------------------------------

     0.100000000000E-005    -0.278499999997E+003    -0.244859945246E-009    -0.183741817360E-008     0.185366176458E-014
     0.205999994278E-005    -0.278499999981E+003    -0.170694766388E-008    -0.128246678495E-007     0.155676924397E-013
     0.318359982147E-005    -0.278499999922E+003    -0.695267281565E-008    -0.522983160088E-007     0.748470748185E-013
     0.437461562859E-005    -0.278499999758E+003    -0.216105104617E-007    -0.162752299610E-006     0.270388966943E-012
     0.563709231599E-005    -0.278499999363E+003    -0.567643119660E-007    -0.428040072332E-006     0.815510686090E-012
     0.697531753239E-005    -0.278499998506E+003    -0.132747256193E-006    -0.100231020416E-005     0.216854015162E-011
     0.839383618521E-005    -0.278499996784E+003    -0.285027887471E-006    -0.215502816173E-005     0.525210974586E-011
     0.989746587602E-005    -0.278499993517E+003    -0.573189935220E-006    -0.433985528595E-005     0.118343147282E-010
     0.114913132622E-004    -0.278499987590E+003    -0.109444345313E-005    -0.829859048823E-005     0.251755324268E-010
     0.131807914004E-004    -0.278499977217E+003    -0.200371921581E-005    -0.152162332977E-004     0.511049572322E-010
     0.149716381303E-004    -0.278499959597E+003    -0.354325248192E-005    -0.269500259726E-004     0.997836678569E-010
     0.168699355614E-004    -0.278499930398E+003    -0.608573678940E-005    -0.463647788889E-004     0.188552750888E-009
     0.188821307298E-004    -0.278499883013E+003    -0.101967235087E-004    -0.778197512300E-004     0.346479781343E-009
     0.210150574931E-004    -0.278499807485E+003    -0.167240670048E-004    -0.127869914014E-003     0.621539765113E-009
     0.232759597402E-004    -0.278499688962E+003    -0.269249890463E-004    -0.206267798224E-003     0.109184742932E-008
     0.256725159928E-004    -0.278499505508E+003    -0.426448689393E-004    -0.327382661367E-003     0.188306673520E-008
     0.282128654833E-004    -0.278499225004E+003    -0.665662563368E-004    -0.512192782964E-003     0.319515789485E-008
     0.309056357980E-004    -0.278498800839E+003    -0.102551919516E-003    -0.791055708799E-003     0.534311451050E-008
     0.337599721774E-004    -0.278498165938E+003    -0.156112046847E-003    -0.120752164893E-002     0.881847213673E-008
     0.367855685763E-004    -0.278497224584E+003    -0.235033059394E-003    -0.182352857545E-002     0.143813723837E-007
     0.399927005860E-004    -0.278495841345E+003    -0.350213906981E-003    -0.272640565991E-002     0.231971579484E-007
     0.433922603327E-004    -0.278493826191E+003    -0.516765175005E-003    -0.403821635721E-002     0.370372652866E-007
     0.469957934698E-004    -0.278490914727E+003    -0.755436605072E-003    -0.592809497539E-002     0.585721054916E-007
     0.508155383889E-004    -0.278486742160E+003    -0.109444918829E-002    -0.862837075413E-002     0.917943577085E-007
     0.548644677845E-004    -0.278480809349E+003    -0.157181778756E-002    -0.124554284028E-001     0.142625486827E-006
     0.591563327122E-004    -0.278472438973E+003    -0.223825764175E-002    -0.178364169609E-001     0.219777362869E-006
     0.637057092900E-004    -0.278460719506E+003    -0.316077077724E-002    -0.253430782878E-001     0.335965812276E-006
     0.685280482021E-004    -0.278444434395E+003    -0.442700338294E-002    -0.357341063644E-001     0.509605153464E-006
     0.736397271730E-004    -0.278421973560E+003    -0.615044933569E-002    -0.500075495060E-001     0.767153791533E-006
     0.790581065897E-004    -0.278391224207E+003    -0.847654518085E-002    -0.694648101784E-001     0.114633241947E-005
     0.848015884613E-004    -0.278349437903E+003    -0.115896555943E-001    -0.957877669275E-001     0.170050004160E-005
     0.908896789166E-004    -0.278293071082E+003    -0.157208843099E-001    -0.131130435363E+000     0.250455074561E-005
     0.973430544509E-004    -0.278217596585E+003    -0.211565627141E-001    -0.178226406566E+000     0.366278787580E-005
     0.104183632148E-003    -0.278117284624E+003    -0.282471640345E-001    -0.240513062125E+000     0.531934411510E-005
     0.111434644115E-003    -0.277984952782E+003    -0.374162570662E-001    -0.322273261828E+000     0.767184811166E-005
     0.119120716386E-003    -0.277811686570E+003    -0.491689323967E-001    -0.428794791130E+000     0.109891924917E-004
     0.127267952553E-003    -0.277586534935E+003    -0.640988786127E-001    -0.566547241933E+000     0.156344350825E-004
     0.135904022424E-003    -0.277296189326E+003    -0.828929217568E-001    -0.743375027064E+000     0.220940633316E-004
     0.145058255993E-003    -0.276924660866E+003    -0.106331334449E+000    -0.968703709496E+000     0.310150658121E-004
     0.154761743052E-003    -0.276452977989E+003    -0.135281546412E+000    -0.125375457099E+001     0.432514731824E-004
     0.165047438780E-003    -0.275858936401E+003    -0.170682041046E+000    -0.161175915912E+001     0.599222346947E-004
     0.175950275662E-003    -0.275116943760E+003    -0.213512243546E+000    -0.205816120474E+001     0.824824542792E-004
     0.187507282134E-003    -0.274198011629E+003    -0.264743227779E+000    -0.261078746581E+001     0.112810074372E-003
     0.199757708333E-003    -0.273069954862E+003    -0.325263380474E+000    -0.328996126666E+001     0.153309993395E-003
     0.212743159403E-003    -0.271697860602E+003    -0.395773253565E+000    -0.411852219631E+001     0.207037227051E-003
     0.226507736794E-003    -0.270044882106E+003    -0.476645379376E+000    -0.512170206338E+001     0.277839921037E-003
     0.241098188040E-003    -0.268073393409E+003    -0.567748536414E+000    -0.632679055965E+001     0.370521583378E-003
     0.256564065527E-003    -0.265746507914E+003    -0.668242353105E+000    -0.776250486755E+001     0.491019558537E-003
     0.272957894778E-003    -0.263029918396E+003    -0.776357231818E+000    -0.945795836445E+001     0.646593203640E-003
     0.290335352846E-003    -0.259893962022E+003    -0.889185606212E+000    -0.114411109933E+002     0.846010170753E-003
     0.308755457403E-003    -0.256315758606E+003    -0.100252192232E+001    -0.137365896890E+002     0.109971255610E-002
     0.328280767180E-003    -0.252281222091E+003    -0.111079828797E+001    -0.163628096602E+002     0.141993681131E-002
     0.348977594427E-003    -0.247786713614E+003    -0.120716821848E+001    -0.193284277363E+002     0.182075339413E-002
     0.370916230124E-003    -0.242840101886E+003    -0.128379038673E+001    -0.226283323238E+002     0.231798643366E-002
     0.394171182707E-003    -0.237461037451E+003    -0.133235576811E+001    -0.262396129560E+002     0.292897350866E-002
     0.418821431115E-003    -0.231680344573E+003    -0.134488088219E+001    -0.301182081994E+002     0.367213462095E-002
     0.444950693017E-003    -0.225538586243E+003    -0.131475197935E+001    -0.341971115428E+002     0.456634004313E-002
     0.472647709137E-003    -0.219084004623E+003    -0.123794310092E+001    -0.383870475515E+002     0.563009944001E-002
     0.502006544641E-003    -0.212370188449E+003    -0.111422897612E+001    -0.425802656118E+002     0.688063438606E-002
     0.533126908594E-003    -0.205453875463E+003    -0.948107084955E+000    -0.466575539030E+002     0.833293419709E-002
     0.566114492604E-003    -0.198393206604E+003    -0.749079163560E+000    -0.504978831193E+002     0.999892062354E-002
     0.601081329767E-003    -0.191246541469E+003    -0.530982559536E+000    -0.539894181411E+002     0.118868511156E-001
     0.638146175159E-003    -0.184071692150E+003    -0.310257504266E+000    -0.570401795591E+002     0.140010678267E-001
     0.677434909153E-003    -0.176925235362E+003    -0.103370840015E+000    -0.595865306794E+002     0.163421507030E-001
     0.719080964939E-003    -0.169861519814E+003     0.760185999925E-001    -0.615979426253E+002     0.189074640114E-001
     0.763225781689E-003    -0.162931140458E+003     0.219345552148E+000    -0.630771168486E+002     0.216920086116E-001
     0.810019284919E-003    -0.156178952753E+003     0.324144881049E+000    -0.640554576660E+002     0.246894262541E-001
     0.859620395664E-003    -0.149642013612E+003     0.393463790849E+000    -0.645849474727E+002     0.278929708340E-001
     0.912197570216E-003    -0.143348004696E+003     0.433966776093E+000    -0.647283835458E+002     0.312962828399E-001
     0.967929372233E-003    -0.137314622812E+003     0.453517130830E+000    -0.645502805784E+002     0.348938750858E-001
     0.102700507918E-002    -0.131550133371E+003     0.459138526629E+000    -0.641102769992E+002     0.386813321476E-001
     0.108962532517E-002    -0.126054909956E+003     0.455944426847E+000    -0.634597782187E+002     0.426553016361E-001
     0.115600278233E-002    -0.120823501249E+003     0.447081696539E+000    -0.626413836139E+002     0.468133832938E-001
     0.122636288312E-002    -0.115846694627E+003     0.434298089014E+000    -0.616899468064E+002     0.511540017294E-001
     0.130094458593E-002    -0.111113184282E+003     0.418626206566E+000    -0.606341121110E+002     0.556763048380E-001
     0.138000118665E-002    -0.106610697129E+003     0.400851546291E+000    -0.594976253381E+002     0.603800915986E-001
     0.146380117888E-002    -0.102326649158E+003     0.381699981960E+000    -0.583002325711E+002     0.652657553441E-001
     0.155262916586E-002    -0.982485121179E+002     0.361853356793E+000    -0.570582828235E+002     0.703342296681E-001
     0.164678682697E-002    -0.943641017429E+002     0.341917275401E+000    -0.557851502380E+002     0.755869276001E-001
     0.174659394236E-002    -0.906616783013E+002     0.322354690415E+000    -0.544918788557E+002     0.810257000028E-001
     0.185238947896E-002    -0.871301476044E+002     0.303510493440E+000    -0.531875523236E+002     0.866527972573E-001
     0.196453274170E-002    -0.837592037415E+002     0.285597146820E+000    -0.518796557552E+002     0.924708392794E-001
     0.208340459379E-002    -0.805393768479E+002     0.268689779395E+000    -0.505744074381E+002     0.984827976032E-001
     0.220940875020E-002    -0.774619987220E+002     0.252753021617E+000    -0.492770066614E+002     0.104691986935E+000
     0.234297314879E-002    -0.745191217671E+002     0.237686962693E+000    -0.479917928919E+002     0.111102060504E+000
     0.248455140365E-002    -0.717034185624E+002     0.223379273431E+000    -0.467223529846E+002     0.117717005304E+000
     0.263462434571E-002    -0.690080818301E+002     0.209742415214E+000    -0.454716052950E+002     0.124541135484E+000
     0.279370165569E-002    -0.664267386596E+002     0.196725486133E+000    -0.442418763336E+002     0.131579083737E+000
     0.296232359518E-002    -0.639533875328E+002     0.184306549596E+000    -0.430349764310E+002     0.138835791478E+000
     0.314106284138E-002    -0.615823613688E+002     0.172478908852E+000    -0.418522747616E+002     0.146316499045E+000
     0.333052643213E-002    -0.593083120315E+002     0.161241105537E+000    -0.406947714711E+002     0.154026737094E+000
     0.353135782749E-002    -0.571262056835E+002     0.150592717605E+000    -0.395631630873E+002     0.161972319901E+000
     0.374423909507E-002    -0.550328163150E+002     0.140584432549E+000    -0.384572302986E+002     0.170159198536E+000
     0.396989322653E-002    -0.530194211680E+002     0.130703318850E+000    -0.373792945809E+002     0.178594042354E+000
     0.420908659296E-002    -0.510856086760E+002     0.121938881032E+000    -0.363272310882E+002     0.187283324003E+000
     0.446263154769E-002    -0.492267539269E+002     0.113716314339E+000    -0.353017545235E+002     0.196233952194E+000
     0.473138918520E-002    -0.474391110189E+002     0.105985284912E+000    -0.343026793261E+002     0.205453103254E+000
     0.501627226558E-002    -0.457190461682E+002     0.987703283802E-001    -0.333297797784E+002     0.214948235278E+000
     0.531824831448E-002    -0.440632501033E+002     0.920467471210E-001    -0.323826231574E+002     0.224727051377E+000
     0.563834290904E-002    -0.424685629262E+002     0.857859934306E-001    -0.314607242566E+002     0.234797496590E+000
     0.597764316095E-002    -0.409317838428E+002     0.799476755159E-001    -0.305634323093E+002     0.245167712350E+000
     0.633730140856E-002    -0.394501425605E+002     0.745629037302E-001    -0.296900886117E+002     0.255846031265E+000
     0.671853913045E-002    -0.380197028243E+002     0.696046351595E-001    -0.288396908434E+002     0.266840841325E+000
     0.712265109384E-002    -0.366371820944E+002     0.649300624518E-001    -0.280106935850E+002     0.278160328117E+000
     0.755100975191E-002    -0.352976249030E+002     0.605140523845E-001    -0.272011702735E+002     0.289812213747E+000
     0.800506990496E-002    -0.339948823693E+002     0.563930963399E-001    -0.264080852727E+002     0.301803100327E+000
     0.848637364120E-002    -0.327209248073E+002     0.525034918232E-001    -0.256270657856E+002     0.314137528725E+000
     0.899655557408E-002    -0.314646572420E+002     0.489210333830E-001    -0.248518430488E+002     0.326816514613E+000
     0.953734839373E-002    -0.302115709166E+002     0.456074282796E-001    -0.240735846958E+002     0.339835359723E+000
     0.101105887516E-001    -0.289428301405E+002     0.424616631368E-001    -0.232806543118E+002     0.353180792530E+000
     0.107182234982E-001    -0.276341273676E+002     0.397485224452E-001    -0.224576934158E+002     0.366826888751E+000
     0.113623162948E-001    -0.262527064158E+002     0.366497884264E-001    -0.215849255455E+002     0.380729603851E+000
     0.120450546223E-001    -0.247681814374E+002     0.344317728614E-001    -0.206398336185E+002     0.394821228944E+000
     0.127687572104E-001    -0.231349372510E+002     0.316793334701E-001    -0.195937599403E+002     0.409001302258E+000
     0.135358819124E-001    -0.213086911471E+002     0.281929137037E-001    -0.184150313871E+002     0.423127944278E+000
     0.143490340526E-001    -0.192503819528E+002     0.249753203495E-001    -0.170738812444E+002     0.437011622207E+000
     0.152109752747E-001    -0.169203269773E+002     0.223001367278E-001    -0.155398920313E+002     0.450406109528E+000
     0.161246329208E-001    -0.142953955529E+002     0.198248433867E-001    -0.137911453893E+002     0.463006507980E+000
     0.170931099734E-001    -0.113854692849E+002     0.176718944024E-001    -0.118275131662E+002     0.474461195857E+000
     0.181196955938E-001    -0.826338215738E+001     0.153424663922E-001    -0.969175733995E+001     0.484410627044E+000
     0.192078762926E-001    -0.511188522512E+001     0.129373539849E-001    -0.750632389776E+001     0.492578875961E+000
     0.203613477710E-001    -0.224100997104E+001     0.103942353078E-001    -0.549251548925E+001     0.498914347268E+000
     0.215840274722E-001    -0.267352018793E-001     0.631417872114E-002    -0.392233010009E+001     0.503710106876E+000
     0.228800678855E-001     0.134788628339E+001    -0.397331824057E-003    -0.293440074402E+001     0.507513208864E+000
     0.242538706494E-001     0.201776486366E+001    -0.613209810074E-002    -0.246017037639E+001     0.510893008226E+000
     0.257101015006E-001     0.224838163286E+001    -0.128036974951E-001    -0.229788274863E+001     0.514239307921E+000
     0.272537061195E-001     0.225079539768E+001    -0.170678255252E-001    -0.229799402985E+001     0.517786599958E+000
     0.288899269272E-001     0.209668056886E+001    -0.243031183171E-001    -0.240579016110E+001     0.521723204726E+000
     0.306243208897E-001     0.191924684112E+001    -0.257022965227E-001    -0.253248125140E+001     0.526115751125E+000
     0.324627783907E-001     0.172371314052E+001    -0.266515529135E-001    -0.267068869377E+001     0.531025943262E+000
     0.344115432366E-001     0.154617790387E+001    -0.230703357273E-001    -0.279539746558E+001     0.536473701092E+000
     0.364772338618E-001     0.140519306874E+001    -0.164707204535E-001    -0.289395650533E+001     0.542451816734E+000
     0.386668658063E-001     0.129299164080E+001    -0.807597060882E-002    -0.297237774528E+001     0.548960254019E+000
     0.409878755421E-001     0.119943618875E+001    -0.608399891687E-003    -0.303763652475E+001     0.556010638108E+000
     0.434481457293E-001     0.111864419639E+001     0.526083067175E-002    -0.309474788929E+001     0.563624565078E+000
     0.460560319869E-001     0.104270021683E+001     0.609839501379E-002    -0.314772366217E+001     0.571833485766E+000
     0.488203912708E-001     0.980499389603E+000     0.429690806833E-002    -0.319171386159E+001     0.580656537606E+000
     0.517506119535E-001     0.945447329658E+000     0.381876522421E-002    -0.321663909545E+001     0.590082006655E+000
     0.548566457095E-001     0.941902924313E+000     0.539082127273E-002    -0.321955867288E+001     0.600082078590E+000
     0.581490413132E-001     0.962093515879E+000     0.451735711448E-002    -0.320382811857E+001     0.610630358688E+000
     0.616389804647E-001     0.104306921531E+001     0.786991124504E-002    -0.314764643457E+001     0.621615487550E+000
     0.653383157655E-001     0.115955197115E+001     0.740163965805E-002    -0.306491395766E+001     0.632953665010E+000
     0.692596109728E-001     0.132421430698E+001     0.910622425739E-002    -0.294903888965E+001     0.644517772205E+000
     0.734161836681E-001     0.151849106665E+001     0.820233723376E-002    -0.281171318804E+001     0.656204912198E+000
     0.778221504872E-001     0.172518997956E+001     0.452501664098E-002    -0.266590862851E+001     0.667950834079E+000
     0.824924750635E-001     0.191839700769E+001    -0.161745406387E-002    -0.253009520424E+001     0.679767202306E+000
     0.874430188470E-001     0.206165895924E+001    -0.907554592432E-002    -0.242991745136E+001     0.691796698942E+000
     0.926905949743E-001     0.212915857116E+001    -0.161661095923E-001    -0.238306298744E+001     0.704302291124E+000
     0.982530253690E-001     0.212785224899E+001    -0.187667233065E-001    -0.238424779650E+001     0.717564914357E+000
     0.104149201269E+000     0.208355209874E+001    -0.154711265835E-001    -0.241499603879E+001     0.731804447989E+000
     0.110399147386E+000     0.202402269273E+001    -0.805766102478E-002    -0.245603325855E+001     0.747154606125E+000
     0.117024089912E+000     0.196496502048E+001     0.271798172321E-003    -0.249669730854E+001     0.763695082397E+000
     0.124046528610E+000     0.192489083381E+001     0.762526491473E-002    -0.252411480524E+001     0.781420604768E+000
     0.131490313229E+000     0.192047474689E+001     0.131536409315E-001    -0.252661746538E+001     0.800228455860E+000
     0.139380724499E+000     0.195478989559E+001     0.158018282285E-001    -0.250219197086E+001     0.819972173281E+000
     0.147744559993E+000     0.202086206190E+001     0.147107832268E-001    -0.245586557036E+001     0.840512997409E+000
     0.156610225139E+000     0.211486321600E+001     0.107817520434E-001    -0.239008515987E+001     0.861702907704E+000
     0.166007829686E+000     0.223658732098E+001     0.605018470065E-002    -0.230462056801E+001     0.883360895065E+000
     0.175969289968E+000     0.237547645551E+001     0.120601849430E-002    -0.220698774504E+001     0.905345719112E+000
     0.185969289968E+000     0.248549799049E+001    -0.440090216994E-002    -0.212990096449E+001     0.926644774224E+000
     0.195969289968E+000     0.253203581508E+001    -0.104651685993E-001    -0.209795970341E+001     0.947624632271E+000
     0.205969289968E+000     0.251602598586E+001    -0.149516930900E-001    -0.211037927735E+001     0.968728954690E+000
     0.215969289968E+000     0.246883808425E+001    -0.156274117119E-001    -0.214375824925E+001     0.990167106772E+000
