 #        time                      h  [L]            Darcian flow [L.T^{-1}]   in    x         z              directions   cumulative flux
 #-----------------------------------------------------------------------------------------------

     0.100000000000E-005    -0.278499999997E+003    -0.241476400231E-009    -0.181225194315E-008     0.182826911512E-014
     0.205999994278E-005    -0.278499999981E+003    -0.168356670611E-008    -0.126485822592E-007     0.153540108538E-013
     0.318359982147E-005    -0.278499999923E+003    -0.685739093470E-008    -0.515795623142E-007     0.738187364893E-013
     0.437461562859E-005    -0.278499999761E+003    -0.213139492771E-007    -0.160512453517E-006     0.266669655412E-012
     0.563709231599E-005    -0.278499999371E+003    -0.559842850786E-007    -0.422140159142E-006     0.804278056423E-012
     0.697531753239E-005    -0.278499998527E+003    -0.130920153170E-006    -0.988470702265E-006     0.213862644990E-011
     0.839383618521E-005    -0.278499996829E+003    -0.281097720520E-006    -0.212521387438E-005     0.517953805434E-011
     0.989746587602E-005    -0.278499993607E+003    -0.565270152452E-006    -0.427968202066E-005     0.116704844314E-010
     0.114913132622E-004    -0.278499987762E+003    -0.107928628143E-005    -0.818324546606E-005     0.248262792998E-010
     0.131807914004E-004    -0.278499977535E+003    -0.197589711182E-005    -0.150041619634E-004     0.503943440851E-010
     0.149716381303E-004    -0.278499960163E+003    -0.349391216203E-005    -0.265732958829E-004     0.983926272341E-010
     0.168699355614E-004    -0.278499931377E+003    -0.600072615552E-005    -0.457145459600E-004     0.185916870615E-009
     0.188821307298E-004    -0.278499884664E+003    -0.100538068430E-004    -0.767245715657E-004     0.341621501574E-009
     0.210150574931E-004    -0.278499810213E+003    -0.164888297968E-004    -0.126063706491E-003     0.612796441846E-009
     0.232759597402E-004    -0.278499693388E+003    -0.265448798322E-004    -0.203342988290E-003     0.107643578832E-008
     0.256725159928E-004    -0.278499512574E+003    -0.420406294917E-004    -0.322722347497E-003     0.185639290582E-008
     0.282128654833E-004    -0.278499236124E+003    -0.656197417195E-004    -0.504873578097E-003     0.314973590283E-008
     0.309056357980E-004    -0.278498818114E+003    -0.101089006134E-003    -0.779710134832E-003     0.526688857937E-008
     0.337599721774E-004    -0.278498192455E+003    -0.153878963529E-003    -0.119014552474E-002     0.869224102028E-008
     0.367855685763E-004    -0.278497264837E+003    -0.231664051579E-003    -0.179721463745E-002     0.141748760645E-007
     0.399927005860E-004    -0.278495901808E+003    -0.345187653092E-003    -0.268697958506E-002     0.228631936780E-007
     0.433922603327E-004    -0.278493916103E+003    -0.509346814600E-003    -0.397974528933E-002     0.365029318258E-007
     0.469957934698E-004    -0.278491047138E+003    -0.744601618753E-003    -0.584223147519E-002     0.577259065629E-007
     0.508155383889E-004    -0.278486935329E+003    -0.107878470913E-002    -0.850348675130E-002     0.904673962842E-007
     0.548644677845E-004    -0.278481088580E+003    -0.154939628153E-002    -0.122754843285E-001     0.140564311345E-006
     0.591563327122E-004    -0.278472839009E+003    -0.220647735584E-002    -0.175795011134E-001     0.216605136966E-006
     0.637057092900E-004    -0.278461287609E+003    -0.311615705951E-002    -0.249795412725E-001     0.331127315369E-006
     0.685280482021E-004    -0.278445234274E+003    -0.436496510644E-002    -0.352242061033E-001     0.502289617950E-006
     0.736397271730E-004    -0.278423090311E+003    -0.606498540342E-002    -0.492985150068E-001     0.756187676203E-006
     0.790581065897E-004    -0.278392770450E+003    -0.835989764133E-002    -0.684872281358E-001     0.113003183787E-005
     0.848015884613E-004    -0.278351561301E+003    -0.114319083759E-001    -0.944511950635E-001     0.167646963639E-005
     0.908896789166E-004    -0.278295963415E+003    -0.155095100326E-001    -0.129318150179E+000     0.246941224953E-005
     0.973430544509E-004    -0.278221504534E+003    -0.208759244845E-001    -0.175789200069E+000     0.361181734347E-005
     0.104183632148E-003    -0.278122522374E+003    -0.278779847296E-001    -0.237262011033E+000     0.524599175322E-005
     0.111434644115E-003    -0.277991916493E+003    -0.369350759533E-001    -0.317971403900E+000     0.756710868003E-005
     0.119120716386E-003    -0.277820870649E+003    -0.485475792287E-001    -0.423147659631E+000     0.108407873154E-004
     0.127267952553E-003    -0.277598549893E+003    -0.633040104905E-001    -0.559192238172E+000     0.154257587995E-004
     0.135904022424E-003    -0.277311780731E+003    -0.818856903855E-001    -0.733869663629E+000     0.218028397404E-004
     0.145058255993E-003    -0.276944728570E+003    -0.105067283158E+000    -0.956512846348E+000     0.306116479567E-004
     0.154761743052E-003    -0.276478594307E+003    -0.133710879065E+000    -0.123823690559E+001     0.426967138463E-004
     0.165047438780E-003    -0.275891361348E+003    -0.168750458797E+000    -0.159215343135E+001     0.591648459433E-004
     0.175950275662E-003    -0.275157634824E+003    -0.211162607184E+000    -0.203357284859E+001     0.814557704145E-004
     0.187507282134E-003    -0.274248624968E+003    -0.261918363743E+000    -0.258017679798E+001     0.111428134297E-003
     0.199757708333E-003    -0.273132334417E+003    -0.321910388511E+000    -0.325213477024E+001     0.151462869851E-003
     0.212743159403E-003    -0.271774011625E+003    -0.391849662722E+000    -0.407212907230E+001     0.204585557173E-003
     0.226507736794E-003    -0.270136926118E+003    -0.472127397290E+000    -0.506523902787E+001     0.274608643369E-003
     0.241098188040E-003    -0.268183502852E+003    -0.562641405415E+000    -0.625861890121E+001     0.366292972428E-003
     0.256564065527E-003    -0.265876820654E+003    -0.662592441267E+000    -0.768088503820E+001     0.485525784212E-003
     0.272957894778E-003    -0.263182434697E+003    -0.770264953702E+000    -0.936110871774E+001     0.639508847078E-003
     0.290335352846E-003    -0.260070429338E+003    -0.882817634072E+000    -0.113272982922E+002     0.836945415128E-003
     0.308755457403E-003    -0.256517552286E+003    -0.996120501006E+000    -0.136042588545E+002     0.108820814277E-002
     0.328280767180E-003    -0.252509232574E+003    -0.110468491747E+001    -0.162107576156E+002     0.140546227809E-002
     0.348977594427E-003    -0.248041252599E+003    -0.120173863114E+001    -0.191560196139E+002     0.180271050942E-002
     0.370916230124E-003    -0.243120840553E+003    -0.127949773175E+001    -0.224357467896E+002     0.229571995544E-002
     0.394171182707E-003    -0.237766988074E+003    -0.132967937466E+001    -0.260280877736E+002     0.290179122405E-002
     0.418821431115E-003    -0.232009891349E+003    -0.134427935224E+001    -0.298902413020E+002     0.363933786595E-002
     0.444950693017E-003    -0.225889563187E+003    -0.131660123246E+001    -0.339565619786E+002     0.452726444931E-002
     0.472647709137E-003    -0.219453808809E+003    -0.124246476167E+001    -0.381390818175E+002     0.558416359725E-002
     0.502006544641E-003    -0.212755907456E+003    -0.112142072827E+001    -0.423311157114E+002     0.682739188378E-002
     0.533126908594E-003    -0.205852405277E+003    -0.957692521518E+000    -0.464140895012E+002     0.827212268901E-002
     0.566114492604E-003    -0.198801342613E+003    -0.760497704587E+000    -0.502670420490E+002     0.993050072305E-002
     0.601081329767E-003    -0.191661038297E+003    -0.543436119618E+000    -0.537775759381E+002     0.118110284727E-001
     0.638146175159E-003    -0.184489303256E+003    -0.322817474363E+000    -0.568525587998E+002     0.139182937445E-001
     0.677434909153E-003    -0.177342753924E+003    -0.115128761829E+000    -0.594267497644E+002     0.162530998897E-001
     0.719080964939E-003    -0.170275842632E+003     0.657933323900E-001    -0.614677826764E+002     0.188129920625E-001
     0.763225781689E-003    -0.163339364901E+003     0.211087448040E+000    -0.629765478034E+002     0.215930958417E-001
     0.810019284919E-003    -0.156578497765E+003     0.317951615619E+000    -0.639829134061E+002     0.245871174735E-001
     0.859620395664E-003    -0.150030738595E+003     0.389144233111E+000    -0.645377824453E+002     0.277883213600E-001
     0.912197570216E-003    -0.143724293550E+003     0.431154674806E+000    -0.647033977442E+002     0.311903187242E-001
     0.967929372233E-003    -0.137677408454E+003     0.451802974304E+000    -0.645441888871E+002     0.347875708076E-001
     0.102700507918E-002    -0.131898857065E+003     0.458171264402E+000    -0.641200332648E+002     0.385756038042E-001
     0.108962532517E-002    -0.126389430609E+003     0.455476953850E+000    -0.634827287113E+002     0.425510102110E-001
     0.115600278233E-002    -0.121143982739E+003     0.446964443746E+000    -0.626752851498E+002     0.467113420536E-001
     0.122636288312E-002    -0.116153499456E+003     0.434445495307E+000    -0.617329135167E+002     0.510549836294E-001
     0.130094458593E-002    -0.111406791554E+003     0.418982520251E+000    -0.606845471996E+002     0.555810483666E-001
     0.138000118665E-002    -0.106891649043E+003     0.401370201208E+000    -0.595541670834E+002     0.602893053002E-001
     0.146380117888E-002    -0.102595519659E+003     0.382336861397E+000    -0.583617188296E+002     0.651801218328E-001
     0.155262916586E-002    -0.985058869030E+002     0.362566444797E+000    -0.571237274178E+002     0.702544097532E-001
     0.164678682697E-002    -0.946105623893E+002     0.342670815359E+000    -0.558537217610E+002     0.755135645330E-001
     0.174659394236E-002    -0.908977954951E+002     0.323120363029E+000    -0.545628670103E+002     0.809594223869E-001
     0.185238947896E-002    -0.873564670423E+002     0.304266363003E+000    -0.532603533713E+002     0.865942219984E-001
     0.196453274170E-002    -0.839762368603E+002     0.286329487062E+000    -0.519537548050E+002     0.924205740560E-001
     0.208340459379E-002    -0.807475978426E+002     0.269392849488E+000    -0.506493614524E+002     0.984414426207E-001
     0.220940875020E-002    -0.776618458932E+002     0.253427217619E+000    -0.493524325428E+002     0.104660136238E+000
     0.234297314879E-002    -0.747110012330E+002     0.238336000305E+000    -0.480673598604E+002     0.111080303170E+000
     0.248455140365E-002    -0.718877090188E+002     0.224007242755E+000    -0.467977770947E+002     0.117705926686E+000
     0.263462434571E-002    -0.691851393108E+002     0.210351943276E+000    -0.455466448443E+002     0.124541318575E+000
     0.279370165569E-002    -0.665969005117E+002     0.197317370150E+000    -0.443163275570E+002     0.131591110629E+000
     0.296232359518E-002    -0.641169751657E+002     0.184880311794E+000    -0.431086691300E+002     0.138860244876E+000
     0.314106284138E-002    -0.617396815222E+002     0.173033498844E+000    -0.419250680558E+002     0.146353963760E+000
     0.333052643213E-002    -0.594596569665E+002     0.161775328709E+000    -0.407665496942E+002     0.154077801464E+000
     0.353135782749E-002    -0.572718529499E+002     0.151105382632E+000    -0.396338320650E+002     0.162037577109E+000
     0.374423909507E-002    -0.551715297309E+002     0.141023109869E+000    -0.385273818565E+002     0.170239389939E+000
     0.396989322653E-002    -0.531542437161E+002     0.131526608558E+000    -0.374474592790E+002     0.178689615959E+000
     0.420908659296E-002    -0.512158278944E+002     0.122609948275E+000    -0.363941523244E+002     0.187394905173E+000
     0.446263154769E-002    -0.493523655108E+002     0.114262671645E+000    -0.353674055584E+002     0.196362179213E+000
     0.473138918520E-002    -0.475599646301E+002     0.106483853227E+000    -0.343670446097E+002     0.205598629266E+000
     0.501627226558E-002    -0.458356653959E+002     0.992215210594E-001    -0.333927428374E+002     0.215111698703E+000
     0.531824831448E-002    -0.441757613929E+002     0.924487463915E-001    -0.324442150499E+002     0.224909114348E+000
     0.563834290904E-002    -0.425771366217E+002     0.861499357204E-001    -0.315209456109E+002     0.234998836337E+000
     0.597764316095E-002    -0.410367205483E+002     0.802941201429E-001    -0.306223490217E+002     0.245389042792E+000
     0.633730140856E-002    -0.395514470596E+002     0.748626661255E-001    -0.297476469494E+002     0.256088063244E+000
     0.671853913045E-002    -0.381176558806E+002     0.698800563080E-001    -0.288959482207E+002     0.267104320929E+000
     0.712265109384E-002    -0.367320436042E+002     0.651860396013E-001    -0.280657382109E+002     0.278446052093E+000
     0.755100975191E-002    -0.353896854360E+002     0.607672602841E-001    -0.272551198118E+002     0.290121047659E+000
     0.800506990496E-002    -0.340846320887E+002     0.566223747640E-001    -0.264611651578E+002     0.302136035868E+000
     0.848637364120E-002    -0.328089384387E+002     0.527115222655E-001    -0.256795671240E+002     0.314495733508E+000
     0.899655557408E-002    -0.315517218004E+002     0.491191246678E-001    -0.249042133213E+002     0.327201437910E+000
     0.953734839373E-002    -0.302987612808E+002     0.457867143465E-001    -0.241264530143E+002     0.340248873960E+000
     0.101105887516E-001    -0.290315446804E+002     0.426334449800E-001    -0.233348657404E+002     0.353625383074E+000
     0.107182234982E-001    -0.277261711351E+002     0.398923116433E-001    -0.225143516308E+002     0.367305906896E+000
     0.113623162948E-001    -0.263504356038E+002     0.367919323618E-001    -0.216455325278E+002     0.381247658615E+000
     0.120450546223E-001    -0.248741644142E+002     0.345246380666E-001    -0.207060665696E+002     0.395384503525E+000
     0.127687572104E-001    -0.232501831604E+002     0.314359204745E-001    -0.196668047553E+002     0.409617439209E+000
     0.135358819124E-001    -0.214411098288E+002     0.283403100430E-001    -0.184992240572E+002     0.423808667604E+000
     0.143490340526E-001    -0.194054180135E+002     0.244068636897E-001    -0.171728464082E+002     0.437772818518E+000
     0.152109752747E-001    -0.171036729502E+002     0.199324931027E-001    -0.156571470779E+002     0.451268369941E+000
     0.161246329208E-001    -0.144978125019E+002     0.193128374239E-001    -0.139252282164E+002     0.463991273410E+000
     0.170931099734E-001    -0.116139448969E+002     0.175367472691E-001    -0.119805220171E+002     0.475594146492E+000
     0.181196955938E-001    -0.851377941672E+001     0.152512857171E-001    -0.986187530972E+001     0.485718217981E+000
     0.192078762926E-001    -0.536896330431E+001     0.130689574406E-001    -0.768341624215E+001     0.494079175332E+000
     0.203613477710E-001    -0.247545336438E+001     0.104696601738E-001    -0.565587540352E+001     0.500603077473E+000
     0.215840274722E-001    -0.204251428551E+000     0.653246923493E-002    -0.404745116186E+001     0.505551820295E+000
     0.228800678855E-001     0.124038779846E+001    -0.163959866014E-002    -0.301002204517E+001     0.509452931090E+000
     0.242538706494E-001     0.196743407003E+001    -0.565671724876E-002    -0.249504744795E+001     0.512880642979E+000
     0.257101015006E-001     0.223088573720E+001    -0.130272235045E-001    -0.230917631191E+001     0.516243390276E+000
     0.272537061195E-001     0.222868628947E+001    -0.168612843146E-001    -0.231204414538E+001     0.519812367202E+000
     0.288899269272E-001     0.210681082663E+001    -0.240693020645E-001    -0.239844186283E+001     0.523736945290E+000
     0.306243208897E-001     0.193522366899E+001    -0.266820241820E-001    -0.252207678030E+001     0.528111464816E+000
     0.324627783907E-001     0.173675844182E+001    -0.266810436778E-001    -0.266069929212E+001     0.533003293323E+000
     0.344115432366E-001     0.155822119758E+001    -0.234131604505E-001    -0.278693385374E+001     0.538434563698E+000
     0.364772338618E-001     0.141456272902E+001    -0.169251486010E-001    -0.288745977892E+001     0.544399264760E+000
     0.386668658063E-001     0.130027994499E+001    -0.855396254648E-002    -0.296732160393E+001     0.550896633930E+000
     0.409878755421E-001     0.120538367053E+001    -0.955229606978E-003    -0.303350595064E+001     0.557937431125E+000
     0.434481457293E-001     0.112361846047E+001     0.510437909394E-002    -0.309126334221E+001     0.565542784534E+000
     0.460560319869E-001     0.104739492761E+001     0.616906666289E-002    -0.314442673085E+001     0.573743107576E+000
     0.488203912708E-001     0.987162048946E+000     0.589771016090E-002    -0.318718313276E+001     0.582553641942E+000
     0.517506119535E-001     0.949002438263E+000     0.530062249312E-002    -0.321424460000E+001     0.591972100756E+000
     0.548566457095E-001     0.942130114645E+000     0.543733908292E-002    -0.321933425968E+001     0.601971475900E+000
     0.581490413132E-001     0.960492346585E+000     0.447295778387E-002    -0.320474839060E+001     0.612522785689E+000
     0.616389804647E-001     0.104103802431E+001     0.765405713661E-002    -0.314891813455E+001     0.623512350837E+000
     0.653383157655E-001     0.115530182928E+001     0.726252320519E-002    -0.306790413017E+001     0.634861588685E+000
     0.692596109728E-001     0.131903206245E+001     0.914839435345E-002    -0.295249951139E+001     0.646439266446E+000
     0.734161836681E-001     0.151237116195E+001     0.838653112657E-002    -0.281584423872E+001     0.658143579634E+000
     0.778221504872E-001     0.172095952034E+001     0.484883864291E-002    -0.266886395589E+001     0.669902525075E+000
     0.824924750635E-001     0.190924436558E+001    -0.165030994925E-002    -0.253619579087E+001     0.681747385115E+000
     0.874430188470E-001     0.205864219716E+001    -0.889844927986E-002    -0.243200843299E+001     0.693787229935E+000
     0.926905949743E-001     0.212835307832E+001    -0.160398509414E-001    -0.238361009386E+001     0.706295688558E+000
     0.982530253690E-001     0.212634316292E+001    -0.187933338281E-001    -0.238517089462E+001     0.719563447467E+000
     0.104149201269E+000     0.208505980436E+001    -0.155854442168E-001    -0.241403696835E+001     0.733797330702E+000
     0.110399147386E+000     0.202558974206E+001    -0.822660283642E-002    -0.245494683472E+001     0.749140702286E+000
     0.117024089912E+000     0.196638044452E+001     0.111296276134E-003    -0.249572502855E+001     0.765674737178E+000
     0.124046528610E+000     0.192572666690E+001     0.749926592484E-002    -0.252354299397E+001     0.783396241406E+000
     0.131490313229E+000     0.192055137719E+001     0.130735421853E-001    -0.252657254460E+001     0.802203755028E+000
     0.139380724499E+000     0.195385359295E+001     0.157030852431E-001    -0.250281392978E+001     0.821952374959E+000
     0.147744559993E+000     0.201986531282E+001     0.147513705698E-001    -0.245655696296E+001     0.842498983712E+000
     0.156610225139E+000     0.211349408616E+001     0.108487130145E-001    -0.239104115387E+001     0.863697372129E+000
     0.166007829686E+000     0.223490487260E+001     0.612016795482E-002    -0.230581304364E+001     0.885366567601E+000
     0.175969289968E+000     0.237374983963E+001     0.127113987165E-002    -0.220815407422E+001     0.907363010353E+000
     0.185969289968E+000     0.248434826583E+001    -0.432442607539E-002    -0.213068655055E+001     0.928669919742E+000
     0.195969289968E+000     0.253187023172E+001    -0.103902674579E-001    -0.209805920783E+001     0.949650769099E+000
     0.205969289968E+000     0.251274609141E+001    -0.147812473612E-001    -0.211244036783E+001     0.970775689911E+000
     0.215969289968E+000     0.246909138941E+001    -0.156224464439E-001    -0.214357582504E+001     0.992212017438E+000
