 #        time                      h  [L]            Darcian flow [L.T^{-1}]   in    x         z              directions   cumulative flux
 #-----------------------------------------------------------------------------------------------

     0.100000000000E-005    -0.247060646734E+003    -0.593423142650E+001    -0.314177345915E+002     0.319732567857E-004
     0.205999994278E-005    -0.246935608411E+003    -0.593397596815E+001    -0.314357273930E+002     0.658835980988E-004
     0.318359982147E-005    -0.246803081112E+003    -0.593369644964E+001    -0.314548022960E+002     0.101849560572E-003
     0.437461562859E-005    -0.246662617155E+003    -0.593339032887E+001    -0.314750245181E+002     0.139997079009E-003
     0.563709231599E-005    -0.246513742203E+003    -0.593305477181E+001    -0.314964632217E+002     0.180459965656E-003
     0.697531753239E-005    -0.246355953692E+003    -0.593268661701E+001    -0.315191917537E+002     0.223380422625E-003
     0.839383618521E-005    -0.246188719165E+003    -0.593228233572E+001    -0.315432878999E+002     0.268909589970E-003
     0.989746587602E-005    -0.246011474513E+003    -0.593183798687E+001    -0.315688341553E+002     0.317208132186E-003
     0.114913132622E-004    -0.245823622115E+003    -0.593134916638E+001    -0.315959180095E+002     0.368446866114E-003
     0.131807914004E-004    -0.245624528865E+003    -0.593081094997E+001    -0.316246322511E+002     0.422807433500E-003
     0.149716381303E-004    -0.245413524093E+003    -0.593021782863E+001    -0.316550752890E+002     0.480483021759E-003
     0.168699355614E-004    -0.245189897365E+003    -0.592956363583E+001    -0.316873514942E+002     0.541679136801E-003
     0.188821307298E-004    -0.244952896158E+003    -0.592884146527E+001    -0.317215715613E+002     0.606614432131E-003
     0.210150574931E-004    -0.244701723403E+003    -0.592804357794E+001    -0.317578528920E+002     0.675521598832E-003
     0.232759597402E-004    -0.244435534889E+003    -0.592716129716E+001    -0.317963200010E+002     0.748648321444E-003
     0.256725159928E-004    -0.244153436524E+003    -0.592618488981E+001    -0.318371049467E+002     0.826258305243E-003
     0.282128654833E-004    -0.243854481442E+003    -0.592510343195E+001    -0.318803477858E+002     0.908632380934E-003
     0.309056357980E-004    -0.243537666949E+003    -0.592390465674E+001    -0.319261970551E+002     0.996069693351E-003
     0.337599721774E-004    -0.243201931303E+003    -0.592257478223E+001    -0.319748102808E+002     0.108888898136E-002
     0.367855685763E-004    -0.242846150318E+003    -0.592109831613E+001    -0.320263545161E+002     0.118742995691E-002
     0.399927005860E-004    -0.242469133780E+003    -0.591945783458E+001    -0.320810069087E+002     0.129205479191E-002
     0.433922603327E-004    -0.242069621681E+003    -0.591763373111E+001    -0.321389552994E+002     0.140314972245E-002
     0.469957934698E-004    -0.241646280242E+003    -0.591560393185E+001    -0.322003988516E+002     0.152112678086E-002
     0.508155383889E-004    -0.241197697741E+003    -0.591334357199E+001    -0.322655487141E+002     0.164642566716E-002
     0.548644677845E-004    -0.240722380111E+003    -0.591082462835E+001    -0.323346287151E+002     0.177951577247E-002
     0.591563327122E-004    -0.240218746335E+003    -0.590801550158E+001    -0.324078760903E+002     0.192089836841E-002
     0.637057092900E-004    -0.239685123590E+003    -0.590488054105E+001    -0.324855422416E+002     0.207110897776E-002
     0.685280482021E-004    -0.239119742181E+003    -0.590137950420E+001    -0.325678935281E+002     0.223071994324E-002
     0.736397271730E-004    -0.238520730213E+003    -0.589746694092E+001    -0.326552120848E+002     0.240034321300E-002
     0.790581065897E-004    -0.237886108043E+003    -0.589309149244E+001    -0.327477966684E+002     0.258063336319E-002
     0.848015884613E-004    -0.237213782471E+003    -0.588819509223E+001    -0.328459635241E+002     0.277229088004E-002
     0.908896789166E-004    -0.236501540707E+003    -0.588271205497E+001    -0.329500472682E+002     0.297606572628E-002
     0.973430544509E-004    -0.235747044091E+003    -0.587656803754E+001    -0.330604017782E+002     0.319276121878E-002
     0.104183632148E-003    -0.234947821600E+003    -0.586967885359E+001    -0.331774010796E+002     0.342323824733E-002
     0.111434644115E-003    -0.234101263138E+003    -0.586194912064E+001    -0.333014402150E+002     0.366841986718E-002
     0.119120716386E-003    -0.233204612650E+003    -0.585327071606E+001    -0.334329360780E+002     0.392929630086E-002
     0.127267952553E-003    -0.232254961079E+003    -0.584352101443E+001    -0.335723281863E+002     0.420693038841E-002
     0.135904022424E-003    -0.231249239220E+003    -0.583256087590E+001    -0.337200793664E+002     0.450246352827E-002
     0.145058255993E-003    -0.230184210533E+003    -0.582023235053E+001    -0.338766763090E+002     0.481712215498E-002
     0.154761743052E-003    -0.229056463977E+003    -0.580635605989E+001    -0.340426299478E+002     0.515222480315E-002
     0.165047438780E-003    -0.227862407002E+003    -0.579072821252E+001    -0.342184755997E+002     0.550918981123E-002
     0.175950275662E-003    -0.226598258791E+003    -0.577311720531E+001    -0.344047727893E+002     0.588954372177E-002
     0.187507282134E-003    -0.225260043956E+003    -0.575325975854E+001    -0.346021046614E+002     0.629493043834E-002
     0.199757708333E-003    -0.223843586897E+003    -0.573085652859E+001    -0.348110768583E+002     0.672712120165E-002
     0.212743159403E-003    -0.222344507089E+003    -0.570556713915E+001    -0.350323157147E+002     0.718802544914E-002
     0.226507736794E-003    -0.220758215667E+003    -0.567700457120E+001    -0.352664655778E+002     0.767970262255E-002
     0.241098188040E-003    -0.219079913735E+003    -0.564472885345E+001    -0.355141850246E+002     0.820437498601E-002
     0.256564065527E-003    -0.217304592962E+003    -0.560824000181E+001    -0.357761416858E+002     0.876444151230E-002
     0.272957894778E-003    -0.215427039148E+003    -0.556697016915E+001    -0.360530053252E+002     0.936249288601E-002
     0.290335352846E-003    -0.213441839622E+003    -0.552027498949E+001    -0.363454387411E+002     0.100013276578E-001
     0.308755457403E-003    -0.211343395532E+003    -0.546742413732E+001    -0.366540859658E+002     0.106839695616E-001
     0.328280767180E-003    -0.209125940317E+003    -0.540759117812E+001    -0.369795571278E+002     0.114136859752E-001
     0.348977594427E-003    -0.206783565960E+003    -0.533984286812E+001    -0.373224092191E+002     0.121940074582E-001
     0.370916230124E-003    -0.204310258914E+003    -0.526312817803E+001    -0.376831218719E+002     0.130287482413E-001
     0.394171182707E-003    -0.201699947998E+003    -0.517626747881E+001    -0.380620671041E+002     0.139220274549E-001
     0.418821431115E-003    -0.198946566933E+003    -0.507794255083E+001    -0.384594718456E+002     0.148782907769E-001
     0.444950693017E-003    -0.196044134631E+003    -0.496668837593E+001    -0.388753719323E+002     0.159023320326E-001
     0.472647709137E-003    -0.192986856742E+003    -0.484088806190E+001    -0.393095561684E+002     0.169993140977E-001
     0.502006544641E-003    -0.189769252328E+003    -0.469877274513E+001    -0.397614990536E+002     0.181747882236E-001
     0.533126908594E-003    -0.186386309728E+003    -0.453842892956E+001    -0.402302809076E+002     0.194347106149E-001
     0.566114492604E-003    -0.182833675698E+003    -0.435781644602E+001    -0.407144944719E+002     0.207854547542E-001
     0.601081329767E-003    -0.179107881516E+003    -0.415480103202E+001    -0.412121377287E+002     0.222338175627E-001
     0.638146175159E-003    -0.175206608885E+003    -0.392720637783E+001    -0.417204937680E+002     0.237870170454E-001
     0.677434909153E-003    -0.171128996929E+003    -0.367289124713E+001    -0.422360001877E+002     0.254526785926E-001
     0.719080964939E-003    -0.166875989110E+003    -0.338985777089E+001    -0.427541128544E+002     0.272388066535E-001
     0.763225781689E-003    -0.162450715505E+003    -0.307639694640E+001    -0.432691719736E+002     0.291537381087E-001
     0.810019284919E-003    -0.157858901293E+003    -0.273127635637E+001    -0.437742823194E+002     0.312060734549E-001
     0.859620395664E-003    -0.153109286580E+003    -0.235397265274E+001    -0.442612240036E+002     0.334045819874E-001
     0.912197570216E-003    -0.148214035997E+003    -0.194494685795E+001    -0.447204149374E+002     0.357580777026E-001
     0.967929372233E-003    -0.143189108975E+003    -0.150595347367E+001    -0.451409504625E+002     0.382752638192E-001
     0.102700507918E-002    -0.138054553784E+003    -0.104036439676E+001    -0.455107484326E+002     0.409645458480E-001
     0.108962532517E-002    -0.132834680907E+003    -0.553475822338E+000    -0.458168278947E+002     0.438338162157E-001
     0.115600278233E-002    -0.127558065009E+003    -0.527515802386E-001    -0.460457447596E+002     0.468902176717E-001
     0.122636288312E-002    -0.122257321133E+003     0.452058140786E+000    -0.461841967939E+002     0.501398980746E-001
     0.130094458593E-002    -0.116968601752E+003     0.948994216617E+000    -0.462197917049E+002     0.535877753773E-001
     0.138000118665E-002    -0.111730769848E+003     0.142423474822E+001    -0.461419459483E+002     0.572373380630E-001
     0.146380117888E-002    -0.106584222747E+003     0.186276763848E+001    -0.459428500387E+002     0.610905118006E-001
     0.155262916586E-002    -0.101569375228E+003     0.224941042591E+001    -0.456184030613E+002     0.651476259807E-001
     0.164678682697E-002    -0.967248597786E+002     0.257013695757E+001    -0.451689920115E+002     0.694075119620E-001
     0.174659394236E-002    -0.920855634582E+002     0.281358955403E+001    -0.445999796769E+002     0.738677561310E-001
     0.185238947896E-002    -0.876806847611E+002     0.297256984373E+001    -0.439217767581E+002     0.785251138723E-001
     0.196453274170E-002    -0.835320424753E+002     0.304523698168E+001    -0.431494148278E+002     0.833760657185E-001
     0.208340459379E-002    -0.796528804835E+002     0.303572903470E+001    -0.423016044981E+002     0.884174676255E-001
     0.220940875020E-002    -0.760473699031E+002     0.295398591503E+001    -0.413993471724E+002     0.936472199756E-001
     0.234297314879E-002    -0.727109094197E+002     0.281469386962E+001    -0.404642514920E+002     0.990648629084E-001
     0.248455140365E-002    -0.696311842115E+002     0.263546585478E+001    -0.395167675024E+002     0.104672006363E+000
     0.263462434571E-002    -0.667898015199E+002     0.243456578405E+001    -0.385745770138E+002     0.110472524766E+000
     0.279370165569E-002    -0.641642216742E+002     0.222861430126E+001    -0.376513603749E+002     0.116472484938E+000
     0.296232359518E-002    -0.617296797302E+002     0.203073127343E+001    -0.367561005186E+002     0.122679822000E+000
     0.314106284138E-002    -0.594608499577E+002     0.184946392358E+001    -0.358929961802E+002     0.129103820148E+000
     0.333052643213E-002    -0.573331189613E+002     0.168865054154E+001    -0.350619556638E+002     0.135754484111E+000
     0.353135782749E-002    -0.553234612603E+002     0.154814011668E+001    -0.342595514654E+002     0.142641898958E+000
     0.374423909507E-002    -0.534110113031E+002     0.142509701609E+001    -0.334802533149E+002     0.149775671456E+000
     0.396989322653E-002    -0.515774695539E+002     0.131551793846E+001    -0.327177337072E+002     0.157164528758E+000
     0.420908659296E-002    -0.498074595780E+002     0.121559355095E+001    -0.319660551823E+002     0.164816123605E+000
     0.446263154769E-002    -0.480888813612E+002     0.112264310666E+001    -0.312205918548E+002     0.172737063112E+000
     0.473138918520E-002    -0.464132139405E+002     0.103549748823E+001    -0.304785940849E+002     0.180933144216E+000
     0.501627226558E-002    -0.447756462282E+002     0.954358301458E+000    -0.297393623963E+002     0.189409746686E+000
     0.531824831448E-002    -0.431748916531E+002     0.880279600819E+000    -0.290040485641E+002     0.198172307645E+000
     0.563834290904E-002    -0.416125841135E+002     0.814482712552E+000    -0.282751469493E+002     0.207226783541E+000
     0.597764316095E-002    -0.400922486609E+002     0.757718912812E+000    -0.275557770487E+002     0.216579999710E+000
     0.633730140856E-002    -0.386179581492E+002     0.709848153349E+000    -0.268488852001E+002     0.226239797051E+000
     0.671853913045E-002    -0.371928861840E+002     0.669721643995E+000    -0.261565024634E+002     0.236214910626E+000
     0.712265109384E-002    -0.358180125987E+002     0.635363838507E+000    -0.254791802058E+002     0.246514553003E+000
     0.755100975191E-002    -0.344912127095E+002     0.604369139250E+000    -0.248156833597E+002     0.257147717865E+000
     0.800506990496E-002    -0.332068696641E+002     0.574381331140E+000    -0.241629603777E+002     0.268122254715E+000
     0.848637364120E-002    -0.319560150468E+002     0.543520268955E+000    -0.235163426236E+002     0.279443780968E+000
     0.899655557408E-002    -0.307268663604E+002     0.510656598553E+000    -0.228698716717E+002     0.291114484575E+000
     0.953734839373E-002    -0.295055354596E+002     0.475493773198E+000    -0.222166264478E+002     0.303131828092E+000
     0.101105887516E-001    -0.282766651133E+002     0.438474594837E+000    -0.215489333913E+002     0.315487103347E+000
     0.107182234982E-001    -0.270238263065E+002     0.400569076157E+000    -0.208583940605E+002     0.328163725271E+000
     0.113623162948E-001    -0.257296632505E+002     0.363014475230E+000    -0.201357490429E+002     0.341135123662E+000
     0.120450546223E-001    -0.243759661857E+002     0.327069681771E+000    -0.193706987367E+002     0.354362127196E+000
     0.127687572104E-001    -0.229440630438E+002     0.293804075798E+000    -0.185519065630E+002     0.367789873555E+000
     0.135358819124E-001    -0.214160255899E+002     0.263908807528E+000    -0.176674800901E+002     0.381344545930E+000
     0.143490340526E-001    -0.197760681908E+002     0.238040213544E+000    -0.167059401073E+002     0.394930395836E+000
     0.152109752747E-001    -0.180147998675E+002     0.216395931171E+000    -0.156584991930E+002     0.408428390535E+000
     0.161246329208E-001    -0.161338102381E+002     0.198762842220E+000    -0.145221410050E+002     0.421697898421E+000
     0.170931099734E-001    -0.141519884419E+002     0.183862855961E+000    -0.133037460761E+002     0.434583501627E+000
     0.181196955938E-001    -0.121049145185E+002     0.171714493386E+000    -0.120222714652E+002     0.446926651477E+000
     0.192078762926E-001    -0.100496005300E+002     0.161876922230E+000    -0.107118756339E+002     0.458584438706E+000
     0.203613477710E-001    -0.805605969791E+001     0.152537453045E+000    -0.941720892869E+001     0.469448345494E+000
     0.215840274722E-001    -0.619429804502E+001     0.142299784590E+000    -0.818641363837E+001     0.479459219320E+000
     0.228800678855E-001    -0.451839910646E+001     0.130782924302E+000    -0.706024548322E+001     0.488611152556E+000
     0.242538706494E-001    -0.305379535769E+001     0.118344634522E+000    -0.606180619540E+001     0.496940465556E+000
     0.257101015006E-001    -0.179935811362E+001     0.105527601827E+000    -0.519597489209E+001     0.504508564840E+000
     0.272537061195E-001    -0.737634373443E+000     0.928812692987E-001    -0.445530400398E+001     0.511387286979E+000
     0.288899269272E-001     0.155365953348E+000     0.802337557121E-001    -0.382442188592E+001     0.517646262579E+000
     0.306243208897E-001     0.904349504672E+000     0.682029420188E-001    -0.328799849231E+001     0.523350174033E+000
     0.324627783907E-001     0.153145841347E+001     0.572255339253E-001    -0.283831214177E+001     0.528569350752E+000
     0.344115432366E-001     0.205562571416E+001     0.475257625729E-001    -0.246212420634E+001     0.533368345645E+000
     0.364772338618E-001     0.249198751948E+001     0.387018567776E-001    -0.214849771716E+001     0.537807197232E+000
     0.386668658063E-001     0.285321958091E+001     0.304162795990E-001    -0.188827284703E+001     0.541942356142E+000
     0.409878755421E-001     0.314952887155E+001     0.225825521658E-001    -0.167418644880E+001     0.545828512673E+000
     0.434481457293E-001     0.338996540954E+001     0.153322507008E-001    -0.149992527060E+001     0.549518926889E+000
     0.460560319869E-001     0.358195122435E+001     0.859959555109E-002    -0.136020613334E+001     0.553066260665E+000
     0.488203912708E-001     0.373173120288E+001     0.243473305047E-002    -0.125064791815E+001     0.556523507400E+000
     0.517506119535E-001     0.384540874048E+001    -0.318801272071E-002    -0.116692335947E+001     0.559942863124E+000
     0.548566457095E-001     0.392821961288E+001    -0.834491918100E-002    -0.110528734230E+001     0.563376020764E+000
     0.581490413132E-001     0.398459570307E+001    -0.131202572418E-001    -0.106255778970E+001     0.566874648044E+000
     0.616389804647E-001     0.401827585471E+001    -0.176070753624E-001    -0.103603687526E+001     0.570490875800E+000
     0.653383157655E-001     0.403238184707E+001    -0.219067875230E-001    -0.102345760232E+001     0.574277855861E+000
     0.692596109728E-001     0.402947375735E+001    -0.261279323360E-001    -0.102294544847E+001     0.578290435182E+000
     0.734161836681E-001     0.401159533305E+001    -0.303842522932E-001    -0.103298748080E+001     0.582585979747E+000
     0.778221504872E-001     0.398031823750E+001    -0.347918900663E-001    -0.105240280399E+001     0.587225364765E+000
     0.824924750635E-001     0.393679416362E+001    -0.394649417243E-001    -0.108030844905E+001     0.592274121347E+000
     0.874430188470E-001     0.388182619521E+001    -0.445077468030E-001    -0.111607364888E+001     0.597803684472E+000
     0.926905949743E-001     0.381597589993E+001    -0.500010404254E-001    -0.115925260388E+001     0.603892606729E+000
     0.982530253690E-001     0.373973021310E+001    -0.559775122625E-001    -0.120948144981E+001     0.610627464727E+000
     0.104149201269E+000     0.365375886477E+001    -0.623811076864E-001    -0.126632114793E+001     0.618102970941E+000
     0.110399147386E+000     0.355928706711E+001    -0.690059367959E-001    -0.132903134977E+001     0.626420534271E+000
     0.117024089912E+000     0.345856134892E+001    -0.754203953459E-001    -0.139628745110E+001     0.635684342997E+000
     0.124046528610E+000     0.335526212868E+001    -0.809064466194E-001    -0.146592605336E+001     0.645994385698E+000
     0.131490313229E+000     0.325457044429E+001    -0.844694044649E-001    -0.153489187519E+001     0.657437078694E+000
     0.139380724499E+000     0.316209583289E+001    -0.850862512512E-001    -0.159984415430E+001     0.670078347413E+000
     0.147744559993E+000     0.308211787699E+001    -0.820588625449E-001    -0.165818411445E+001     0.683964098373E+000
     0.156610225139E+000     0.301568998896E+001    -0.753937625464E-001    -0.170916362112E+001     0.699131705963E+000
     0.166007829686E+000     0.295995062839E+001    -0.659366752836E-001    -0.175428995227E+001     0.715629470096E+000
     0.175969289968E+000     0.290895190646E+001    -0.552372131684E-001    -0.179682271481E+001     0.733536903888E+000
     0.185969289968E+000     0.285217455418E+001    -0.458755308990E-001    -0.184262431205E+001     0.751968856903E+000
     0.195969289968E+000     0.278894697882E+001    -0.389741297507E-001    -0.189148668008E+001     0.770887738592E+000
     0.205969289968E+000     0.272147413302E+001    -0.348546291634E-001    -0.194165661207E+001     0.790307432834E+000
     0.215969289968E+000     0.265512017932E+001    -0.328992377048E-001    -0.198972030228E+001     0.810207355550E+000
