 #        time                      h  [L]            Darcian flow [L.T^{-1}]   in    x         z              directions   cumulative flux
 #-----------------------------------------------------------------------------------------------

     0.100000000000E-005    -0.278368840374E+003    -0.353586378386E-002    -0.978941842987E-001     0.979580198463E-007
     0.205999994278E-005    -0.278229707925E+003    -0.727258166409E-002    -0.201731267745E+000     0.311932063805E-006
     0.318359982147E-005    -0.278082111036E+003    -0.112207036511E-001    -0.311876377271E+000     0.662583048218E-006
     0.437461562859E-005    -0.277925526866E+003    -0.153912064683E-001    -0.428717601680E+000     0.117352143239E-005
     0.563709231599E-005    -0.277759399240E+003    -0.197954895292E-001    -0.552667498628E+000     0.187169869283E-005
     0.697531753239E-005    -0.277583136395E+003    -0.244453661791E-001    -0.684164707668E+000     0.278784939924E-005
     0.839383618521E-005    -0.277396108536E+003    -0.293530491362E-001    -0.823675677502E+000     0.395699039312E-005
     0.989746587602E-005    -0.277197645223E+003    -0.345311290920E-001    -0.971696516463E+000     0.541898440992E-005
     0.114913132622E-004    -0.276987032539E+003    -0.399925448503E-001    -0.112875497563E+001     0.721917643446E-005
     0.131807914004E-004    -0.276763510043E+003    -0.457505434913E-001    -0.129541257515E+001     0.940911215410E-005
     0.149716381303E-004    -0.276526267472E+003    -0.518186285325E-001    -0.147226688491E+001     0.120473490884E-004
     0.168699355614E-004    -0.276274441182E+003    -0.582104936925E-001    -0.165995397196E+001     0.152003723497E-004
     0.188821307298E-004    -0.276007110289E+003    -0.649399396363E-001    -0.185915102743E+001     0.189436285451E-004
     0.210150574931E-004    -0.275723292485E+003    -0.720207702491E-001    -0.207057918747E+001     0.233626930909E-004
     0.232759597402E-004    -0.275421939502E+003    -0.794666647017E-001    -0.229500656336E+001     0.285545882100E-004
     0.256725159928E-004    -0.275101932178E+003    -0.872910206687E-001    -0.253325149677E+001     0.346292711341E-004
     0.282128654833E-004    -0.274762075092E+003    -0.955067634084E-001    -0.278618605737E+001     0.417113146003E-004
     0.309056357980E-004    -0.274401090714E+003    -0.104126114340E+000    -0.305473980172E+001     0.499418046212E-004
     0.337599721774E-004    -0.274017613025E+003    -0.113160310886E+000    -0.333990381235E+001     0.594804837977E-004
     0.367855685763E-004    -0.273610180550E+003    -0.122619270580E+000    -0.364273503610E+001     0.705081721519E-004
     0.399927005860E-004    -0.273177228729E+003    -0.132511186269E+000    -0.396436094309E+001     0.832295016702E-004
     0.433922603327E-004    -0.272717081563E+003    -0.142842043212E+000    -0.430598452581E+001     0.978760055036E-004
     0.469957934698E-004    -0.272227942457E+003    -0.153615040882E+000    -0.466888965738E+001     0.114709608153E-003
     0.508155383889E-004    -0.271707884157E+003    -0.164829905304E+000    -0.505444682716E+001     0.134026569047E-003
     0.548644677845E-004    -0.271154837689E+003    -0.176482070780E+000    -0.546411926698E+001     0.156161938773E-003
     0.591563327122E-004    -0.270566580196E+003    -0.188561709821E+000    -0.589946947733E+001     0.181494594936E-003
     0.637057092900E-004    -0.269940721533E+003    -0.201052585876E+000    -0.636216615395E+001     0.210452933289E-003
     0.685280482021E-004    -0.269274689509E+003    -0.213930700415E+000    -0.685399150300E+001     0.243521299465E-003
     0.736397271730E-004    -0.268565713618E+003    -0.227162701461E+000    -0.737684891511E+001     0.281247257433E-003
     0.790581065897E-004    -0.267810807120E+003    -0.240704023932E+000    -0.793277094483E+001     0.324249802742E-003
     0.848015884613E-004    -0.267006747303E+003    -0.254496721714E+000    -0.852392750353E+001     0.373228641734E-003
     0.908896789166E-004    -0.266150053795E+003    -0.268466960366E+000    -0.915263412620E+001     0.428974672075E-003
     0.973430544509E-004    -0.265236964751E+003    -0.282522139804E+000    -0.982136010231E+001     0.492381815127E-003
     0.104183632148E-003    -0.264263410819E+003    -0.296547625595E+000    -0.105327361645E+002     0.564460366427E-003
     0.111434644115E-003    -0.263224986788E+003    -0.310403082646E+000    -0.112895612970E+002     0.646352046313E-003
     0.119120716386E-003    -0.262116920912E+003    -0.323918445979E+000    -0.120948080493E+002     0.739346947663E-003
     0.127267952553E-003    -0.260934042001E+003    -0.336889601163E+000    -0.129516254911E+002     0.844902590211E-003
     0.135904022424E-003    -0.259670744529E+003    -0.349073901351E+000    -0.138633386125E+002     0.964665298706E-003
     0.145058255993E-003    -0.258320952272E+003    -0.360185779443E+000    -0.148334425390E+002     0.110049412206E-002
     0.154761743052E-003    -0.256878081298E+003    -0.369892833294E+000    -0.158655893346E+002     0.125448749734E-002
     0.165047438780E-003    -0.255335003623E+003    -0.377812956911E+000    -0.169635643941E+002     0.142901282911E-002
     0.175950275662E-003    -0.253684013491E+003    -0.383513354485E+000    -0.181312484272E+002     0.162673909069E-002
     0.187507282134E-003    -0.251916799100E+003    -0.386512595295E+000    -0.193725597617E+002     0.185067244588E-002
     0.199757708333E-003    -0.250024423765E+003    -0.386287166889E+000    -0.206913701586E+002     0.210419471766E-002
     0.212743159403E-003    -0.247997321918E+003    -0.382284601564E+000    -0.220913854325E+002     0.239110427048E-002
     0.226507736794E-003    -0.245825317302E+003    -0.373945046424E+000    -0.235759801176E+002     0.271565849134E-002
     0.241098188040E-003    -0.243497672529E+003    -0.360734433206E+000    -0.251479734355E+002     0.308261651924E-002
     0.256564065527E-003    -0.241003181832E+003    -0.342190741927E+000    -0.268093319047E+002     0.349728013559E-002
     0.272957894778E-003    -0.238330320668E+003    -0.317985650448E+000    -0.285607838365E+002     0.396552976803E-002
     0.290335352846E-003    -0.235467467241E+003    -0.288000939667E+000    -0.304013326382E+002     0.449385135626E-002
     0.308755457403E-003    -0.232403211724E+003    -0.252416159523E+000    -0.323276623648E+002     0.508934842874E-002
     0.328280767180E-003    -0.229126764459E+003    -0.211799227463E+000    -0.343334419496E+002     0.575973227396E-002
     0.348977594427E-003    -0.225628469192E+003    -0.167184149079E+000    -0.364085573725E+002     0.651328184054E-002
     0.370916230124E-003    -0.221900410375E+003    -0.120114210498E+000    -0.385383358837E+002     0.735876445838E-002
     0.394171182707E-003    -0.217937087925E+003    -0.726199737270E-001    -0.407028716425E+002     0.830530931495E-002
     0.418821431115E-003    -0.213736100301E+003    -0.271073038676E-001    -0.428766145091E+002     0.936222872470E-002
     0.444950693017E-003    -0.209298758988E+003     0.138666769860E-001    -0.450284238726E+002     0.105387882609E-001
     0.472647709137E-003    -0.204630532163E+003     0.479156377050E-001    -0.471222957757E+002     0.118439359214E-001
     0.502006544641E-003    -0.199741230064E+003     0.732028507401E-001    -0.491189145630E+002     0.132860116556E-001
     0.533126908594E-003    -0.194644876561E+003     0.887871655816E-001    -0.509780352211E+002     0.148724690715E-001
     0.566114492604E-003    -0.189359286879E+003     0.948315014117E-001    -0.526614882415E+002     0.166096471556E-001
     0.601081329767E-003    -0.183905450235E+003     0.925895865245E-001    -0.541363664325E+002     0.185026274338E-001
     0.638146175159E-003    -0.178306882858E+003     0.841478308906E-001    -0.553778115747E+002     0.205551998276E-001
     0.677434909153E-003    -0.172589107386E+003     0.719854812359E-001    -0.563708511998E+002     0.227699410113E-001
     0.719080964939E-003    -0.166779377624E+003     0.584702981338E-001    -0.571109348076E+002     0.251483874348E-001
     0.763225781689E-003    -0.160906644879E+003     0.454470910972E-001    -0.576031855156E+002     0.276912702950E-001
     0.810019284919E-003    -0.155001670054E+003     0.340093893263E-001    -0.578606651328E+002     0.303987739834E-001
     0.859620395664E-003    -0.149097133032E+003     0.244861019269E-001    -0.579021213276E+002     0.332707837726E-001
     0.912197570216E-003    -0.143227571815E+003     0.166135503009E-001    -0.577496924315E+002     0.363070995576E-001
     0.967929372233E-003    -0.137429009541E+003     0.982328470224E-002    -0.574269193459E+002     0.395076053038E-001
     0.102700507918E-002    -0.131738180801E+003     0.356107833297E-002    -0.569572516576E+002     0.428723952179E-001
     0.108962532517E-002    -0.126191315084E+003    -0.244995138612E-002    -0.563630719972E+002     0.464018646542E-001
     0.115600278233E-002    -0.120822513247E+003    -0.807371963178E-002    -0.556651681363E+002     0.500967770064E-001
     0.122636288312E-002    -0.115661833794E+003    -0.127903114489E-001    -0.548825162887E+002     0.539583164891E-001
     0.130094458593E-002    -0.110733311133E+003    -0.158785592111E-001    -0.540322146161E+002     0.579881312360E-001
     0.138000118665E-002    -0.106053206536E+003    -0.166792441107E-001    -0.531294439835E+002     0.621883646822E-001
     0.146380117888E-002    -0.101628829286E+003    -0.148508380492E-001    -0.521873894553E+002     0.665616676903E-001
     0.155262916586E-002    -0.974582522471E+002    -0.105375878814E-001    -0.512171040018E+002     0.711111800337E-001
     0.164678682697E-002    -0.935310898227E+002    -0.438283628568E-002    -0.502273798861E+002     0.758404726655E-001
     0.174659394236E-002    -0.898302941560E+002     0.262371738021E-002    -0.492247359244E+002     0.807534515708E-001
     0.185238947896E-002    -0.863346827731E+002     0.940049348162E-002    -0.482136037642E+002     0.858542357494E-001
     0.196453274170E-002    -0.830217493070E+002     0.150341055475E-001    -0.471967692057E+002     0.911470357076E-001
     0.208340459379E-002    -0.798702115271E+002     0.189787514082E-001    -0.461759810063E+002     0.966360605555E-001
     0.220940875020E-002    -0.768618810406E+002     0.211211515150E-001    -0.451526304749E+002     0.102325480291E+000
     0.234297314879E-002    -0.739825748504E+002     0.217295192798E-001    -0.441282999783E+002     0.108219450853E+000
     0.248455140365E-002    -0.712220732085E+002     0.212913124587E-001    -0.431050783592E+002     0.114322193367E+000
     0.263462434571E-002    -0.685733565409E+002     0.203392688390E-001    -0.420855978100E+002     0.120638103586E+000
     0.279370165569E-002    -0.660314324164E+002     0.193021602456E-001    -0.410727655470E+002     0.127171849364E+000
     0.296232359518E-002    -0.635922154199E+002     0.184362630382E-001    -0.400694319872E+002     0.133928435415E+000
     0.314106284138E-002    -0.612517053648E+002     0.178190725130E-001    -0.390780618782E+002     0.140913219465E+000
     0.333052643213E-002    -0.590055900718E+002     0.174057444320E-001    -0.381005415135E+002     0.148131885623E+000
     0.353135782749E-002    -0.568492543884E+002     0.170650429187E-001    -0.371381757481E+002     0.155590398066E+000
     0.374423909507E-002    -0.547779780287E+002     0.166911452880E-001    -0.361918306526E+002     0.163294961671E+000
     0.396989322653E-002    -0.527871894424E+002     0.162219910577E-001    -0.352621015051E+002     0.171252001402E+000
     0.420908659296E-002    -0.508727073803E+002     0.156123575939E-001    -0.343494499419E+002     0.179468162817E+000
     0.446263154769E-002    -0.490307772974E+002     0.148700555880E-001    -0.334542857592E+002     0.187950329023E+000
     0.473138918520E-002    -0.472580360034E+002     0.140276778475E-001    -0.325769889235E+002     0.196705644415E+000
     0.501627226558E-002    -0.455513500894E+002     0.131295618853E-001    -0.317178398545E+002     0.205741521110E+000
     0.531824831448E-002    -0.439077015269E+002     0.121507755828E-001    -0.308769440446E+002     0.215065619397E+000
     0.563834290904E-002    -0.423240116710E+002     0.111512679436E-001    -0.300542641949E+002     0.224685827571E+000
     0.597764316095E-002    -0.407970789094E+002     0.102179041004E-001    -0.292495518758E+002     0.234610208497E+000
     0.633730140856E-002    -0.393236488275E+002     0.933537205786E-002    -0.284623007725E+002     0.244846910266E+000
     0.671853913045E-002    -0.379008196123E+002     0.857921868759E-002    -0.276913857556E+002     0.255403911594E+000
     0.712265109384E-002    -0.365243236551E+002     0.807133001020E-002    -0.269363708476E+002     0.266289221793E+000
     0.755100975191E-002    -0.351893953365E+002     0.761075100219E-002    -0.261957651431E+002     0.277510405070E+000
     0.800506990496E-002    -0.338903156055E+002     0.718185128256E-002    -0.254672022600E+002     0.289074047286E+000
     0.848637364120E-002    -0.326197053100E+002     0.677849020800E-002    -0.247472228581E+002     0.300984978556E+000
     0.899655557408E-002    -0.313678406299E+002     0.640183396979E-002    -0.240308412661E+002     0.313245080037E+000
     0.953734839373E-002    -0.301219710641E+002     0.603224148158E-002    -0.233110852360E+002     0.325851547973E+000
     0.101105887516E-001    -0.288655571608E+002     0.566869532658E-002    -0.225785037551E+002     0.338794457954E+000
     0.107182234982E-001    -0.275778295331E+002     0.531552326089E-002    -0.218207378839E+002     0.352053496881E+000
     0.113623162948E-001    -0.262334516169E+002     0.493891580149E-002    -0.210222258939E+002     0.365593761522E+000
     0.120450546223E-001    -0.248027769436E+002     0.453884351606E-002    -0.201641253902E+002     0.379360583115E+000
     0.127687572104E-001    -0.232528134204E+002     0.409445668036E-002    -0.192246901573E+002     0.393273541453E+000
     0.135358819124E-001    -0.215491371048E+002     0.355961304225E-002    -0.181801730688E+002     0.407220001568E+000
     0.143490340526E-001    -0.196592152871E+002     0.286456190077E-002    -0.170066384996E+002     0.421048986258E+000
     0.152109752747E-001    -0.175576646455E+002     0.200402512129E-002    -0.156832272245E+002     0.434567006409E+000
     0.161246329208E-001    -0.152343404081E+002     0.819315310353E-003    -0.141972784509E+002     0.447538458441E+000
     0.170931099734E-001    -0.127062985526E+002    -0.113748088429E-003    -0.125529704277E+002     0.459695722243E+000
     0.181196955938E-001    -0.100316457199E+002    -0.108175190948E-002    -0.107838154923E+002     0.470766232215E+000
     0.192078762926E-001    -0.732595746471E+001    -0.196244186588E-002    -0.896407246421E+001     0.480520763087E+000
     0.203613477710E-001    -0.475972767486E+001    -0.261648704145E-002    -0.721111680765E+001     0.488838581200E+000
     0.215840274722E-001    -0.251859560641E+001    -0.296462075113E-002    -0.565870995121E+001     0.495757371942E+000
     0.228800678855E-001    -0.725084068406E+000    -0.256868343739E-002    -0.440225668344E+001     0.501462875485E+000
     0.242538706494E-001     0.612025583358E+000    -0.215937588829E-002    -0.345614385921E+001     0.506210936398E+000
     0.257101015006E-001     0.156549819886E+001    -0.180048419248E-002    -0.278034232211E+001     0.510259757513E+000
     0.272537061195E-001     0.222774594619E+001    -0.148315053586E-002    -0.231218901732E+001     0.513828863894E+000
     0.288899269272E-001     0.267487078680E+001    -0.123783324712E-002    -0.199606389700E+001     0.517094865804E+000
     0.306243208897E-001     0.296312435948E+001    -0.108265681674E-002    -0.179220813138E+001     0.520203261334E+000
     0.324627783907E-001     0.313428015127E+001    -0.102526731744E-002    -0.167110986829E+001     0.523275526384E+000
     0.344115432366E-001     0.321907687826E+001    -0.107422835858E-002    -0.161105239739E+001     0.526415089359E+000
     0.364772338618E-001     0.323993321986E+001    -0.123716487565E-002    -0.159619485128E+001     0.529712335090E+000
     0.386668658063E-001     0.321323522248E+001    -0.152298105592E-002    -0.161495769914E+001     0.533248499629E+000
     0.409878755421E-001     0.315093792384E+001    -0.193782870637E-002    -0.165889150544E+001     0.537098805591E+000
     0.434481457293E-001     0.306159518396E+001    -0.248101750270E-002    -0.172195080344E+001     0.541335274214E+000
     0.460560319869E-001     0.295161289008E+001    -0.313664839072E-002    -0.179960813939E+001     0.546028454678E+000
     0.488203912708E-001     0.282638678294E+001    -0.385759386375E-002    -0.188804834399E+001     0.551247709540E+000
     0.517506119535E-001     0.269122256434E+001    -0.454211463146E-002    -0.198351661073E+001     0.557059866176E+000
     0.548566457095E-001     0.255209525196E+001    -0.501305833604E-002    -0.208177860073E+001     0.563525959531E+000
     0.581490413132E-001     0.241566072091E+001    -0.502901417287E-002    -0.217810952911E+001     0.570697176883E+000
     0.616389804647E-001     0.228803184214E+001    -0.435319333983E-002    -0.226816424495E+001     0.578612946663E+000
     0.653383157655E-001     0.217283192969E+001    -0.288602388956E-002    -0.234936745723E+001     0.587304051189E+000
     0.692596109728E-001     0.207000026636E+001    -0.759634368739E-003    -0.242177367823E+001     0.596800541174E+000
     0.734161836681E-001     0.197653602515E+001     0.166270990684E-002    -0.248754746627E+001     0.607140215360E+000
     0.778221504872E-001     0.188878680252E+001     0.390592908309E-002    -0.254933902203E+001     0.618372531686E+000
     0.824924750635E-001     0.180496296376E+001     0.555069323243E-002    -0.260847146838E+001     0.630554967673E+000
     0.874430188470E-001     0.172689083596E+001     0.638239078147E-002    -0.266368928061E+001     0.643741715936E+000
     0.926905949743E-001     0.165989087774E+001     0.645507804203E-002    -0.271122394703E+001     0.657969110320E+000
     0.982530253690E-001     0.161049114529E+001     0.596466369667E-002    -0.274642482892E+001     0.673245943293E+000
     0.104149201269E+000     0.158413765704E+001     0.507177376358E-002    -0.276541469190E+001     0.689551342175E+000
     0.110399147386E+000     0.158485292128E+001     0.382543636409E-002    -0.276533889556E+001     0.706834577804E+000
     0.117024089912E+000     0.161651205809E+001     0.221562447794E-002    -0.274345656763E+001     0.725009825814E+000
     0.124046528610E+000     0.168390062404E+001     0.252612890995E-003    -0.269638333358E+001     0.743945012565E+000
     0.131490313229E+000     0.179197618144E+001    -0.195717259702E-002    -0.262058753177E+001     0.763452107166E+000
     0.139380724499E+000     0.194280435369E+001    -0.411207432533E-002    -0.251450904077E+001     0.783292644170E+000
     0.147744559993E+000     0.212997481113E+001    -0.560870560660E-002    -0.238247943974E+001     0.803219365489E+000
     0.156610225139E+000     0.233115678177E+001    -0.566415631983E-002    -0.224004355925E+001     0.823078905086E+000
     0.166007829686E+000     0.250307739743E+001    -0.384642808364E-002    -0.211770630940E+001     0.842980304355E+000
     0.175969289968E+000     0.259169263569E+001    -0.646078195123E-003    -0.205394359582E+001     0.863440582919E+000
     0.185969289968E+000     0.256815596399E+001     0.270445758282E-002    -0.206966271412E+001     0.884137227730E+000
     0.195969289968E+000     0.249032368899E+001     0.585534459979E-002    -0.212413780804E+001     0.905378686514E+000
     0.205969289968E+000     0.241510403013E+001     0.849074737975E-002    -0.217708185176E+001     0.927149670603E+000
     0.215969289968E+000     0.235776785839E+001     0.959392984962E-002    -0.221773107887E+001     0.949327188908E+000
