 #        time                      h  [L]            Darcian flow [L.T^{-1}]   in    x         z              directions   cumulative flux
 #-----------------------------------------------------------------------------------------------

     0.100000000000E-005    -0.278499999983E+003    -0.195739675338E-008    -0.147355528355E-007     0.148649897214E-013
     0.205999994278E-005    -0.278499999884E+003    -0.134595892307E-007    -0.101570609986E-006     0.123471020411E-012
     0.318359982147E-005    -0.278499999532E+003    -0.540231693206E-007    -0.408712031484E-006     0.586694101030E-012
     0.437461562859E-005    -0.278499998563E+003    -0.165304784464E-006    -0.125395679329E-005     0.209309761320E-011
     0.563709231599E-005    -0.278499996273E+003    -0.427011069103E-006    -0.324832294091E-005     0.622931119824E-011
     0.697531753239E-005    -0.278499991399E+003    -0.980962609541E-006    -0.748448630510E-005     0.163309016420E-010
     0.839383618521E-005    -0.278499981795E+003    -0.206664008228E-005    -0.158173709057E-004     0.389588408425E-010
     0.989746587602E-005    -0.278499963943E+003    -0.407267741968E-005    -0.312740374263E-004     0.863804731358E-010
     0.114913132622E-004    -0.278499932268E+003    -0.761022223210E-005    -0.586428095613E-004     0.180631915590E-009
     0.131807914004E-004    -0.278499878138E+003    -0.136159194644E-004    -0.105308104977E-003     0.360028642645E-009
     0.149716381303E-004    -0.278499788481E+003    -0.234945683166E-004    -0.182418530360E-003     0.689410659710E-009
     0.168699355614E-004    -0.278499643840E+003    -0.393142944647E-004    -0.306502359427E-003     0.127601009128E-008
     0.188821307298E-004    -0.278499415719E+003    -0.640704287022E-004    -0.501677448218E-003     0.229368221274E-008
     0.210150574931E-004    -0.278499062942E+003    -0.102038177129E-003    -0.802642766055E-003     0.401943904268E-008
     0.232759597402E-004    -0.278498526764E+003    -0.159238554149E-003    -0.125868659764E-002     0.688788954255E-008
     0.256725159928E-004    -0.278497724316E+003    -0.244046775622E-003    -0.193900220563E-002     0.115714793608E-007
     0.282128654833E-004    -0.278496539951E+003    -0.367977091822E-003    -0.293966469478E-002     0.190975345809E-007
     0.309056357980E-004    -0.278494813876E+003    -0.546682436671E-003    -0.439269132268E-002     0.310172942254E-007
     0.337599721774E-004    -0.278492327432E+003    -0.801210641677E-003    -0.647767849202E-002     0.496476632543E-007
     0.367855685763E-004    -0.278488784162E+003    -0.115956045374E-002    -0.943657742421E-002     0.784136829456E-007
     0.399927005860E-004    -0.278483785785E+003    -0.165857914432E-002    -0.135922304276E-001     0.122329101264E-006
     0.433922603327E-004    -0.278476802003E+003    -0.234623784128E-002    -0.193713321216E-001     0.188664377072E-006
     0.469957934698E-004    -0.278467133012E+003    -0.328430946376E-002    -0.273324944208E-001     0.287866439973E-006
     0.508155383889E-004    -0.278453863521E+003    -0.455145584360E-002    -0.382000683301E-001     0.434813023432E-006
     0.548644677845E-004    -0.278435807054E+003    -0.624670388118E-002    -0.529042962794E-001     0.650506825974E-006
     0.591563327122E-004    -0.278411439382E+003    -0.849325421301E-002    -0.726282221049E-001     0.964341477969E-006
     0.637057092900E-004    -0.278378820080E+003    -0.114425190205E-001    -0.988615587310E-001     0.141710248931E-005
     0.685280482021E-004    -0.278335501443E+003    -0.152782279817E-001    -0.133461394907E+000     0.206490198097E-005
     0.736397271730E-004    -0.278278424438E+003    -0.202203733500E-001    -0.178719204147E+000     0.298428568780E-005
     0.790581065897E-004    -0.278203801919E+003    -0.265286880053E-001    -0.237433098277E+000     0.427879365515E-005
     0.848015884613E-004    -0.278106990081E+003    -0.345052663026E-001    -0.312983647813E+000     0.608730088763E-005
     0.908896789166E-004    -0.277982350142E+003    -0.444958500069E-001    -0.409410882173E+000     0.859450893340E-005
     0.973430544509E-004    -0.277823103389E+003    -0.568892150477E-001    -0.531489301997E+000     0.120440012131E-004
     0.104183632148E-003    -0.277621184179E+003    -0.721140150063E-001    -0.684796908064E+000     0.167543101456E-004
     0.111434644115E-003    -0.277367097057E+003    -0.906323712879E-001    -0.875773405450E+000     0.231384680875E-004
     0.119120716386E-003    -0.277049785973E+003    -0.112929456640E+000    -0.111176190868E+001     0.317275209461E-004
     0.127267952553E-003    -0.276656525437E+003    -0.139498309340E+000    -0.140102768414E+001     0.431984659336E-004
     0.135904022424E-003    -0.276172845271E+003    -0.170819154834E+000    -0.175274674820E+001     0.584070247350E-004
     0.145058255993E-003    -0.275582502338E+003    -0.207332620092E+000    -0.217695652345E+001     0.784255702684E-004
     0.154761743052E-003    -0.274867513817E+003    -0.249406430909E+000    -0.268446027805E+001     0.104586377528E-003
     0.165047438780E-003    -0.274008267147E+003    -0.297295519977E+000    -0.328667679760E+001     0.138530153670E-003
     0.175950275662E-003    -0.272983721195E+003    -0.351095988055E+000    -0.399542676691E+001     0.182259505738E-003
     0.187507282134E-003    -0.271771711117E+003    -0.410694099474E+000    -0.482264783710E+001     0.238196613108E-003
     0.199757708333E-003    -0.270349365435E+003    -0.475712495344E+000    -0.578003156029E+001     0.309243875499E-003
     0.212743159403E-003    -0.268693637768E+003    -0.545457082310E+000    -0.687857760175E+001     0.398845702203E-003
     0.226507736794E-003    -0.266781947392E+003    -0.618869551060E+000    -0.812806424762E+001     0.511048900715E-003
     0.241098188040E-003    -0.264592912894E+003    -0.694492054348E+000    -0.953643958611E+001     0.650558336232E-003
     0.256564065527E-003    -0.262107152327E+003    -0.770451968110E+000    -0.111091451705E+002     0.822783713770E-003
     0.272957894778E-003    -0.259308112840E+003    -0.844475490772E+000    -0.128483936807E+002     0.103387255820E-002
     0.290335352846E-003    -0.256182884172E+003    -0.913938641476E+000    -0.147524340921E+002     0.129072384835E-002
     0.308755457403E-003    -0.252722944972E+003    -0.975962537927E+000    -0.168148518265E+002     0.160097645589E-002
     0.328280767180E-003    -0.248924789480E+003    -0.102755635317E+001    -0.190239665261E+002     0.197296674972E-002
     0.348977594427E-003    -0.244790384448E+003    -0.106580614102E+001    -0.213624052857E+002     0.241565069484E-002
     0.370916230124E-003    -0.240327408410E+003    -0.108810223304E+001    -0.238069449866E+002     0.293848782923E-002
     0.394171182707E-003    -0.235549190823E+003    -0.109239758335E+001    -0.263287676075E+002     0.355128885192E-002
     0.418821431115E-003    -0.230474672761E+003    -0.107736741915E+001    -0.288938680462E+002     0.426402482797E-002
     0.444950693017E-003    -0.225128218943E+003    -0.104257979035E+001    -0.314638050887E+002     0.508660204844E-002
     0.472647709137E-003    -0.219539049404E+003    -0.988661745475E+000    -0.339970885034E+002     0.602861803180E-002
     0.502006544641E-003    -0.213740342446E+003    -0.917369436292E+000    -0.364511506666E+002     0.709912022583E-002
     0.533126908594E-003    -0.207768170348E+003    -0.831520199506E+000    -0.387846364247E+002     0.830638959153E-002
     0.566114492604E-003    -0.201660394938E+003    -0.734786421226E+000    -0.409597106992E+002     0.965776888494E-002
     0.601081329767E-003    -0.195455597773E+003    -0.631374732091E+000    -0.429441068676E+002     0.111595507601E-001
     0.638146175159E-003    -0.189192084765E+003    -0.525635390048E+000    -0.447126835822E+002     0.128169339774E-001
     0.677434909153E-003    -0.182906985219E+003    -0.421662507069E+000    -0.462483298754E+002     0.146340478277E-001
     0.719080964939E-003    -0.176635455768E+003    -0.322949151518E+000    -0.475421568199E+002     0.166140368231E-001
     0.763225781689E-003    -0.170409998439E+003    -0.232149765016E+000    -0.485930214827E+002     0.187591913317E-001
     0.810019284919E-003    -0.164259906021E+003    -0.150978356472E+000    -0.494065212460E+002     0.210711063376E-001
     0.859620395664E-003    -0.158210852370E+003    -0.802412140344E-001    -0.499936535164E+002     0.235508502763E-001
     0.912197570216E-003    -0.152284645109E+003    -0.199759200162E-001    -0.503693485637E+002     0.261991285160E-001
     0.967929372233E-003    -0.146499150181E+003     0.303483321220E-001    -0.505510561700E+002     0.290164304779E-001
     0.102700507918E-002    -0.140868382505E+003     0.716171230887E-001    -0.505575143002E+002     0.320031543734E-001
     0.108962532517E-002    -0.135402738453E+003     0.104882355065E+000    -0.504077684095E+002     0.351597080634E-001
     0.115600278233E-002    -0.130109328967E+003     0.131217886726E+000    -0.501204588927E+002     0.384865880779E-001
     0.122636288312E-002    -0.124992348678E+003     0.151618534150E+000    -0.497133770589E+002     0.419844425663E-001
     0.130094458593E-002    -0.120053216590E+003     0.166830635689E+000    -0.492035114318E+002     0.456541453272E-001
     0.138000118665E-002    -0.115292294118E+003     0.178115671558E+000    -0.486051728048E+002     0.494967308668E-001
     0.146380117888E-002    -0.110709120200E+003     0.186320910627E+000    -0.479305048682E+002     0.535133371501E-001
     0.155262916586E-002    -0.106301666730E+003     0.191882514156E+000    -0.471912298745E+002     0.577052737546E-001
     0.164678682697E-002    -0.102066398891E+003     0.195168724390E+000    -0.463986376831E+002     0.620740996066E-001
     0.174659394236E-002    -0.979987873138E+002     0.196515000154E+000    -0.455629722962E+002     0.666216507369E-001
     0.185238947896E-002    -0.940937291902E+002     0.196221505160E+000    -0.446932212893E+002     0.713500396364E-001
     0.196453274170E-002    -0.903457982125E+002     0.194572006602E+000    -0.437972031519E+002     0.762616493649E-001
     0.208340459379E-002    -0.867494007033E+002     0.191828470628E+000    -0.428817076325E+002     0.813591283756E-001
     0.220940875020E-002    -0.832988842888E+002     0.188217552721E+000    -0.419526213378E+002     0.866453862369E-001
     0.234297314879E-002    -0.799886139931E+002     0.183926280552E+000    -0.410150381118E+002     0.921235902165E-001
     0.248455140365E-002    -0.768130232708E+002     0.179106246820E+000    -0.400733565458E+002     0.977971627697E-001
     0.263462434571E-002    -0.737666469489E+002     0.173880887696E+000    -0.391313650814E+002     0.103669779830E+000
     0.279370165569E-002    -0.708441421093E+002     0.168352471809E+000    -0.381923159704E+002     0.109745369742E+000
     0.296232359518E-002    -0.680403011496E+002     0.162607848045E+000    -0.372589900787E+002     0.116028112745E+000
     0.314106284138E-002    -0.653500561097E+002     0.156727951862E+000    -0.363337567820E+002     0.122522441462E+000
     0.333052643213E-002    -0.627685009524E+002     0.150761828801E+000    -0.354186091589E+002     0.129233039125E+000
     0.353135782749E-002    -0.602908886480E+002     0.144746970322E+000    -0.345152250753E+002     0.136164840892E+000
     0.374423909507E-002    -0.579126174190E+002     0.138720725372E+000    -0.336250144189E+002     0.143323037500E+000
     0.396989322653E-002    -0.556292141837E+002     0.132714629817E+000    -0.327491549964E+002     0.150713080307E+000
     0.420908659296E-002    -0.534362970371E+002     0.126741696937E+000    -0.318886385763E+002     0.158340691364E+000
     0.446263154769E-002    -0.513294302216E+002     0.120749326560E+000    -0.310443894406E+002     0.166211899219E+000
     0.473138918520E-002    -0.493039132909E+002     0.114907907709E+000    -0.302174772929E+002     0.174333135746E+000
     0.501627226558E-002    -0.473587484989E+002     0.109866347263E+000    -0.294052065159E+002     0.182710240028E+000
     0.531824831448E-002    -0.454903581746E+002     0.105090657547E+000    -0.286086072453E+002     0.191349412496E+000
     0.563834290904E-002    -0.436941079502E+002     0.100426856556E+000    -0.278287071728E+002     0.200257289239E+000
     0.597764316095E-002    -0.419653818573E+002     0.958173634070E-001    -0.270656026362E+002     0.209440712579E+000
     0.633730140856E-002    -0.402995226616E+002     0.910922319359E-001    -0.263188510278E+002     0.218906561115E+000
     0.671853913045E-002    -0.386910882688E+002     0.860735127457E-001    -0.255879536261E+002     0.228661709454E+000
     0.712265109384E-002    -0.371339598186E+002     0.814884675496E-001    -0.248720916769E+002     0.238712873200E+000
     0.755100975191E-002    -0.356281180224E+002     0.781099450943E-001    -0.241641483574E+002     0.249063849441E+000
     0.800506990496E-002    -0.341657944699E+002     0.749968342437E-001    -0.234644037170E+002     0.259718154604E+000
     0.848637364120E-002    -0.327375001796E+002     0.718904685211E-001    -0.227710167351E+002     0.270677984656E+000
     0.899655557408E-002    -0.313334126986E+002     0.686526275913E-001    -0.220801901514E+002     0.281942953197E+000
     0.953734839373E-002    -0.299429122666E+002     0.651422025979E-001    -0.213870985788E+002     0.293508996192E+000
     0.101105887516E-001    -0.285542529513E+002     0.614942875905E-001    -0.206862622160E+002     0.305367248944E+000
     0.107182234982E-001    -0.271545333458E+002     0.577988026665E-001    -0.199713728040E+002     0.317502599817E+000
     0.113623162948E-001    -0.257303487302E+002     0.539526722178E-001    -0.192355591365E+002     0.329892133630E+000
     0.120450546223E-001    -0.242675108720E+002     0.497119294366E-001    -0.184719097885E+002     0.342503660095E+000
     0.127687572104E-001    -0.227537163259E+002     0.463116658566E-001    -0.176727305566E+002     0.355293504853E+000
     0.135358819124E-001    -0.211840558588E+002     0.434868821355E-001    -0.168265464052E+002     0.368201607357E+000
     0.143490340526E-001    -0.195504280973E+002     0.398656668654E-001    -0.159322919188E+002     0.381157025186E+000
     0.152109752747E-001    -0.178370578148E+002     0.368450257450E-001    -0.149825619919E+002     0.394071152029E+000
     0.161246329208E-001    -0.160525123344E+002     0.331702684462E-001    -0.139753118548E+002     0.406839838528E+000
     0.170931099734E-001    -0.141973215995E+002     0.292244677398E-001    -0.129131628021E+002     0.419345972405E+000
     0.181196955938E-001    -0.122829617193E+002     0.248617789331E-001    -0.118005470984E+002     0.431460271255E+000
     0.192078762926E-001    -0.103316773754E+002     0.215808001822E-001    -0.106447095301E+002     0.443043662515E+000
     0.203613477710E-001    -0.837205812172E+001     0.191617452355E-001    -0.946170793159E+001     0.453957495132E+000
     0.215840274722E-001    -0.645251612817E+001     0.169940269356E-001    -0.827234260905E+001     0.464071941864E+000
     0.228800678855E-001    -0.461283124120E+001     0.140692501631E-001    -0.711274545428E+001     0.473290365456E+000
     0.242538706494E-001    -0.291111521855E+001     0.114534344396E-001    -0.601670693524E+001     0.481556149050E+000
     0.257101015006E-001    -0.140486245066E+001     0.880559657311E-002    -0.502791722750E+001     0.488877968462E+000
     0.272537061195E-001    -0.147226429579E+000     0.619021125130E-002    -0.421168180488E+001     0.495379146972E+000
     0.288899269272E-001     0.820455826544E+000     0.681239048197E-003    -0.343679100882E+001     0.501002496043E+000
     0.306243208897E-001     0.148288478298E+001    -0.640812359941E-002    -0.291308556494E+001     0.506054946283E+000
     0.324627783907E-001     0.187149841423E+001    -0.126152733344E-001    -0.263665049051E+001     0.510902371638E+000
     0.344115432366E-001     0.202478102958E+001    -0.185621673590E-001    -0.253066983156E+001     0.515834184704E+000
     0.364772338618E-001     0.201676460473E+001    -0.222903893379E-001    -0.254053033475E+001     0.521082336393E+000
     0.386668658063E-001     0.191565105394E+001    -0.220369326239E-001    -0.261601090310E+001     0.526810640668E+000
     0.409878755421E-001     0.177750588914E+001    -0.192864411006E-001    -0.271669373425E+001     0.533116272167E+000
     0.434481457293E-001     0.164637845850E+001    -0.115346061617E-001    -0.281128022946E+001     0.540032839321E+000
     0.460560319869E-001     0.153376770360E+001    -0.383196486033E-002    -0.289190277250E+001     0.547574599441E+000
     0.488203912708E-001     0.143862951407E+001     0.247595410302E-002    -0.296034564983E+001     0.555758061284E+000
     0.517506119535E-001     0.136044735216E+001     0.567772726961E-002    -0.301678898687E+001     0.564597934424E+000
     0.548566457095E-001     0.129157192846E+001     0.487198502673E-002    -0.306630286228E+001     0.574121986642E+000
     0.581490413132E-001     0.125157553802E+001     0.434032277845E-002    -0.309511011113E+001     0.584312323585E+000
     0.616389804647E-001     0.124680764069E+001     0.527366013079E-002    -0.309885059481E+001     0.595127139261E+000
     0.653383157655E-001     0.127067411275E+001     0.508828453398E-002    -0.307978738301E+001     0.606520320995E+000
     0.692596109728E-001     0.134515818584E+001     0.614921526723E-002    -0.302532969097E+001     0.618383556319E+000
     0.734161836681E-001     0.146292693705E+001     0.766885016223E-002    -0.293958435814E+001     0.630602193977E+000
     0.778221504872E-001     0.161838061218E+001     0.742337642817E-002    -0.282625861861E+001     0.643054638626E+000
     0.824924750635E-001     0.179649190391E+001     0.535763843506E-002    -0.269657458460E+001     0.655648542038E+000
     0.874430188470E-001     0.197439006219E+001     0.691377284137E-003    -0.256707943789E+001     0.668356981652E+000
     0.926905949743E-001     0.212584501774E+001    -0.581050425196E-002    -0.245786114392E+001     0.681254831156E+000
     0.982530253690E-001     0.221652008651E+001    -0.128429192613E-001    -0.239334606757E+001     0.694567843737E+000
     0.104149201269E+000     0.223800491748E+001    -0.168115067177E-001    -0.237829692515E+001     0.708591051084E+000
     0.110399147386E+000     0.221749841176E+001    -0.146345840458E-001    -0.239355089324E+001     0.723550894809E+000
     0.117024089912E+000     0.216972489473E+001    -0.789347719188E-002    -0.242746535438E+001     0.739632798289E+000
     0.124046528610E+000     0.211791504439E+001     0.721239576733E-004    -0.246420107089E+001     0.756937499257E+000
     0.131490313229E+000     0.208143232667E+001     0.708467367169E-002    -0.248985190969E+001     0.775471495634E+000
     0.139380724499E+000     0.207821942726E+001     0.122528141051E-001    -0.249167984402E+001     0.795132112066E+000
     0.147744559993E+000     0.210724824520E+001     0.135030584374E-001    -0.246964305500E+001     0.815788109054E+000
     0.156610225139E+000     0.217329299273E+001     0.129015043785E-001    -0.242213028456E+001     0.837262209719E+000
     0.166007829686E+000     0.226316791326E+001     0.901226228600E-002    -0.235717465964E+001     0.859414166924E+000
     0.175969289968E+000     0.237850813775E+001     0.438657719793E-002    -0.227350811766E+001     0.882061669893E+000
     0.185969289968E+000     0.249146122200E+001    -0.379805054317E-003    -0.219141292493E+001     0.903975799472E+000
     0.195969289968E+000     0.257624021933E+001    -0.568046984978E-002    -0.213065419730E+001     0.925282417167E+000
     0.205969289968E+000     0.260183203032E+001    -0.111389576313E-001    -0.211313739288E+001     0.946414084677E+000
     0.215969289968E+000     0.257633952727E+001    -0.144344996729E-001    -0.213252962897E+001     0.967739869477E+000
