 #        time                      h  [L]            Darcian flow [L.T^{-1}]   in    x         z              directions   cumulative flux
 #-----------------------------------------------------------------------------------------------

     0.100000000000E-005    -0.278499999997E+003    -0.244993185309E-009    -0.183856112041E-008     0.185481229626E-014
     0.205999994278E-005    -0.278499999981E+003    -0.170804098119E-008    -0.128327137274E-007     0.155774499490E-013
     0.318359982147E-005    -0.278499999922E+003    -0.695711873455E-008    -0.523314361160E-007     0.748943798331E-013
     0.437461562859E-005    -0.278499999758E+003    -0.216242194167E-007    -0.162855580446E-006     0.270560359953E-012
     0.563709231599E-005    -0.278499999362E+003    -0.568003380374E-007    -0.428312135605E-006     0.816028550869E-012
     0.697531753239E-005    -0.278499998505E+003    -0.132831527458E-006    -0.100294858327E-005     0.216991972274E-011
     0.839383618521E-005    -0.278499996782E+003    -0.285209173748E-006    -0.215640357543E-005     0.525545724113E-011
     0.989746587602E-005    -0.278499993513E+003    -0.573555290669E-006    -0.434263131494E-005     0.118418723382E-010
     0.114913132622E-004    -0.278499987582E+003    -0.109514268806E-005    -0.830391212790E-005     0.251916448220E-010
     0.131807914004E-004    -0.278499977202E+003    -0.200500281647E-005    -0.152260179767E-004     0.511377422644E-010
     0.149716381303E-004    -0.278499959571E+003    -0.354552897542E-005    -0.269674084481E-004     0.998478480617E-010
     0.168699355614E-004    -0.278499930353E+003    -0.608965922496E-005    -0.463947822206E-004     0.188674370988E-009
     0.188821307298E-004    -0.278499882937E+003    -0.102033180183E-004    -0.778702877934E-004     0.346703952966E-009
     0.210150574931E-004    -0.278499807359E+003    -0.167349219800E-004    -0.127953264553E-003     0.621943218598E-009
     0.232759597402E-004    -0.278499688758E+003    -0.269425299552E-004    -0.206402774960E-003     0.109255861807E-008
     0.256725159928E-004    -0.278499505182E+003    -0.426727541644E-004    -0.327597739832E-003     0.188429768565E-008
     0.282128654833E-004    -0.278499224491E+003    -0.666099392554E-004    -0.512530587390E-003     0.319725413166E-008
     0.309056357980E-004    -0.278498800042E+003    -0.102619437417E-003    -0.791579364542E-003     0.534663250421E-008
     0.337599721774E-004    -0.278498164714E+003    -0.156215113428E-003    -0.120832367342E-002     0.882429820274E-008
     0.367855685763E-004    -0.278497222726E+003    -0.235188556705E-003    -0.182474317286E-002     0.143909033234E-007
     0.399927005860E-004    -0.278495838554E+003    -0.350445896455E-003    -0.272822551800E-002     0.232125726420E-007
     0.433922603327E-004    -0.278493822040E+003    -0.517107571370E-003    -0.404091532406E-002     0.370619288126E-007
     0.469957934698E-004    -0.278490908615E+003    -0.755936686918E-003    -0.593205832538E-002     0.586111643097E-007
     0.508155383889E-004    -0.278486733244E+003    -0.109517214848E-002    -0.863413513475E-002     0.918556074657E-007
     0.548644677845E-004    -0.278480796460E+003    -0.157285255654E-002    -0.124637339882E-001     0.142720625258E-006
     0.591563327122E-004    -0.278472420508E+003    -0.223972424119E-002    -0.178482748017E-001     0.219923781246E-006
     0.637057092900E-004    -0.278460693285E+003    -0.316282947468E-002    -0.253598563165E-001     0.336189132526E-006
     0.685280482021E-004    -0.278444397478E+003    -0.442986591187E-002    -0.357576379422E-001     0.509942787203E-006
     0.736397271730E-004    -0.278421922022E+003    -0.615439241043E-002    -0.500402687298E-001     0.767659885069E-006
     0.790581065897E-004    -0.278391152854E+003    -0.848192646346E-002    -0.695099183503E-001     0.114708465838E-005
     0.848015884613E-004    -0.278349339924E+003    -0.115969321555E-001    -0.958494345931E-001     0.170160892325E-005
     0.908896789166E-004    -0.278292937634E+003    -0.157306334672E-001    -0.131214044148E+000     0.250617209120E-005
     0.973430544509E-004    -0.278217416295E+003    -0.211695049268E-001    -0.178338834720E+000     0.366513954937E-005
     0.104183632148E-003    -0.278117043010E+003    -0.282641872730E-001    -0.240663017278E+000     0.532272814940E-005
     0.111434644115E-003    -0.277984631586E+003    -0.374384417396E-001    -0.322471663945E+000     0.767667971470E-005
     0.119120716386E-003    -0.277811263011E+003    -0.491975754439E-001    -0.429055207909E+000     0.109960377263E-004
     0.127267952553E-003    -0.277585980889E+003    -0.641355146586E-001    -0.566886377523E+000     0.156440593749E-004
     0.135904022424E-003    -0.277295470454E+003    -0.829393382065E-001    -0.743813262561E+000     0.221074933677E-004
     0.145058255993E-003    -0.276923735734E+003    -0.106389575916E+000    -0.969265689481E+000     0.310336678025E-004
     0.154761743052E-003    -0.276451797237E+003    -0.135353901907E+000    -0.125446982395E+001     0.432770508879E-004
     0.165047438780E-003    -0.275857442047E+003    -0.170771004866E+000    -0.161266273034E+001     0.599571509443E-004
     0.175950275662E-003    -0.275115068761E+003    -0.213620437965E+000    -0.205929426772E+001     0.825297799083E-004
     0.187507282134E-003    -0.274195679839E+003    -0.264873272873E+000    -0.261219786182E+001     0.112873768419E-003
     0.199757708333E-003    -0.273067081543E+003    -0.325417694641E+000    -0.329170390025E+001     0.153395117864E-003
     0.212743159403E-003    -0.271694353663E+003    -0.395953768868E+000    -0.412065918656E+001     0.207150198280E-003
     0.226507736794E-003    -0.270040644189E+003    -0.476853160663E+000    -0.512430251317E+001     0.277988797375E-003
     0.241098188040E-003    -0.268068324910E+003    -0.567983303930E+000    -0.632992975756E+001     0.370716384874E-003
     0.256564065527E-003    -0.265740510923E+003    -0.668501926182E+000    -0.776626267872E+001     0.491272608045E-003
     0.272957894778E-003    -0.263022901443E+003    -0.776636935848E+000    -0.946241650521E+001     0.646919469298E-003
     0.290335352846E-003    -0.259885845367E+003    -0.889477714271E+000    -0.114463488383E+002     0.846427576521E-003
     0.308755457403E-003    -0.256306479713E+003    -0.100281523250E+001    -0.137426782682E+002     0.110024220992E-002
     0.328280767180E-003    -0.252270740784E+003    -0.111107796250E+001    -0.163698036282E+002     0.142060308082E-002
     0.348977594427E-003    -0.247775016358E+003    -0.120741602595E+001    -0.193363554024E+002     0.182158374183E-002
     0.370916230124E-003    -0.242827204574E+003    -0.128398548898E+001    -0.226371843695E+002     0.231901091387E-002
     0.394171182707E-003    -0.237446986192E+003    -0.133247617159E+001    -0.262493311872E+002     0.293022383715E-002
     0.418821431115E-003    -0.231665214212E+003    -0.134490560854E+001    -0.301286764038E+002     0.367364276366E-002
     0.444950693017E-003    -0.225522476731E+003    -0.131466392539E+001    -0.342081510220E+002     0.456813633805E-002
     0.472647709137E-003    -0.219067035778E+003    -0.123773233221E+001    -0.383984198113E+002     0.563221036090E-002
     0.502006544641E-003    -0.212352494105E+003    -0.111389591180E+001    -0.425916837136E+002     0.688308015875E-002
     0.533126908594E-003    -0.205435598084E+003    -0.947664763727E+000    -0.466687023128E+002     0.833572656123E-002
     0.566114492604E-003    -0.198374493155E+003    -0.748553645846E+000    -0.505084439702E+002     0.100020610693E-001
     0.601081329767E-003    -0.191227540716E+003    -0.530410709610E+000    -0.539991001687E+002     0.118903298984E-001
     0.638146175159E-003    -0.184052552869E+003    -0.309682009544E+000    -0.570487450760E+002     0.140048639685E-001
     0.677434909153E-003    -0.176906104452E+003    -0.102833257425E+000    -0.595938160380E+002     0.163462330403E-001
     0.719080964939E-003    -0.169842539334E+003     0.764850656060E-001    -0.616038685976E+002     0.189117931659E-001
     0.763225781689E-003    -0.162912443134E+003     0.219721399677E+000    -0.630816870945E+002     0.216965395754E-001
     0.810019284919E-003    -0.156160656409E+003     0.324426069329E+000    -0.640587458210E+002     0.246941111468E-001
     0.859620395664E-003    -0.149624215737E+003     0.393659423989E+000    -0.645870760225E+002     0.278977613623E-001
     0.912197570216E-003    -0.143330778649E+003     0.434093821688E+000    -0.647294997217E+002     0.313011320970E-001
     0.967929372233E-003    -0.137298016784E+003     0.453594372159E+000    -0.645505349549E+002     0.348987385496E-001
     0.102700507918E-002    -0.131534172333E+003     0.459181954119E+000    -0.641098088440E+002     0.386861679740E-001
     0.108962532517E-002    -0.126039599870E+003     0.455965229461E+000    -0.634587086693E+002     0.426600704981E-001
     0.115600278233E-002    -0.120808834249E+003     0.447086615361E+000    -0.626398149960E+002     0.468180480399E-001
     0.122636288312E-002    -0.115832653872E+003     0.434290977859E+000    -0.616879651399E+002     0.511585270452E-001
     0.130094458593E-002    -0.111099747683E+003     0.418609592470E+000    -0.606317902424E+002     0.556806569804E-001
     0.138000118665E-002    -0.106597839761E+003     0.400827555538E+000    -0.594950253943E+002     0.603842381902E-001
     0.146380117888E-002    -0.102314344679E+003     0.381670633420E+000    -0.582974075673E+002     0.652696651894E-001
     0.155262916586E-002    -0.982367336789E+002     0.361820580837E+000    -0.570552777224E+002     0.703378725632E-001
     0.164678682697E-002    -0.943528226807E+002     0.341882686431E+000    -0.557820029767E+002     0.755902741420E-001
     0.174659394236E-002    -0.906508724800E+002     0.322319581901E+000    -0.544886218248E+002     0.810287214549E-001
     0.185238947896E-002    -0.871197900511E+002     0.303475862584E+000    -0.531842130535E+002     0.866554654144E-001
     0.196453274170E-002    -0.837492710635E+002     0.285563611565E+000    -0.518762577294E+002     0.924731263558E-001
     0.208340459379E-002    -0.805298473619E+002     0.268657592065E+000    -0.505709708669E+002     0.984846761535E-001
     0.220940875020E-002    -0.774528523876E+002     0.252722156247E+000    -0.492735490216E+002     0.104693429794E+000
     0.234297314879E-002    -0.745103400137E+002     0.237657245692E+000    -0.479883292714E+002     0.111103040733E+000
     0.248455140365E-002    -0.716949840718E+002     0.223350519075E+000    -0.467188963303E+002     0.117717496131E+000
     0.263462434571E-002    -0.689999783110E+002     0.209714502163E+000    -0.454681666281E+002     0.124541110247E+000
     0.279370165569E-002    -0.664189506758E+002     0.196698381304E+000    -0.442384649406E+002     0.131578515811E+000
     0.296232359518E-002    -0.639459003757E+002     0.184280276465E+000    -0.430316000635E+002     0.138834654208E+000
     0.314106284138E-002    -0.615751610006E+002     0.172453516063E+000    -0.418489398348E+002     0.146314765680E+000
     0.333052643213E-002    -0.593013850780E+002     0.161216647983E+000    -0.406914832501E+002     0.154024380717E+000
     0.353135782749E-002    -0.571195394449E+002     0.150569249922E+000    -0.395599258570E+002     0.161969313373E+000
     0.374423909507E-002    -0.550264055919E+002     0.140554740074E+000    -0.384540473994E+002     0.170155514410E+000
     0.396989322653E-002    -0.530132427333E+002     0.130679618044E+000    -0.373761703569E+002     0.178589653220E+000
     0.420908659296E-002    -0.510795431827E+002     0.121956829957E+000    -0.363241598589E+002     0.187278200270E+000
     0.446263154769E-002    -0.492209589608E+002     0.113712528190E+000    -0.352987261832E+002     0.196228060641E+000
     0.473138918520E-002    -0.474335482043E+002     0.105974979908E+000    -0.342997174011E+002     0.205446415656E+000
     0.501627226558E-002    -0.457136925957E+002     0.987582256251E-001    -0.333268863015E+002     0.214940723371E+000
     0.531824831448E-002    -0.440580913169E+002     0.920342109150E-001    -0.323797962736E+002     0.224718685811E+000
     0.563834290904E-002    -0.424635877408E+002     0.857735557699E-001    -0.314579624543E+002     0.234788246979E+000
     0.597764316095E-002    -0.409269822042E+002     0.799358994243E-001    -0.305607340584E+002     0.245157547215E+000
     0.633730140856E-002    -0.394455051543E+002     0.745513501855E-001    -0.296874522514E+002     0.255834917934E+000
     0.671853913045E-002    -0.380152184005E+002     0.695936808211E-001    -0.288371140128E+002     0.266828745601E+000
     0.712265109384E-002    -0.366328390175E+002     0.649196250254E-001    -0.280081722883E+002     0.278147213500E+000
     0.755100975191E-002    -0.352933708651E+002     0.605171843489E-001    -0.271986825863E+002     0.289798033513E+000
     0.800506990496E-002    -0.339907595860E+002     0.563907480432E-001    -0.264056477203E+002     0.301787813298E+000
     0.848637364120E-002    -0.327168873773E+002     0.524971669087E-001    -0.256246562843E+002     0.314121081990E+000
     0.899655557408E-002    -0.314606642655E+002     0.489139658085E-001    -0.248494404324E+002     0.326798842102E+000
     0.953734839373E-002    -0.302076686623E+002     0.455925567298E-001    -0.240712119789E+002     0.339816404051E+000
     0.101105887516E-001    -0.289388125112E+002     0.424528845299E-001    -0.232781959484E+002     0.353160427618E+000
     0.107182234982E-001    -0.276299248938E+002     0.397406185668E-001    -0.224551079168E+002     0.366804952794E+000
     0.113623162948E-001    -0.262482314950E+002     0.366416572618E-001    -0.215821510962E+002     0.380705880885E+000
     0.120450546223E-001    -0.247625857861E+002     0.343123157402E-001    -0.206364942691E+002     0.394795225943E+000
     0.127687572104E-001    -0.231298604252E+002     0.320891785056E-001    -0.195903923531E+002     0.408972862611E+000
     0.135358819124E-001    -0.213026073789E+002     0.281961112249E-001    -0.184111642236E+002     0.423096538042E+000
     0.143490340526E-001    -0.192470368554E+002     0.241524624744E-001    -0.170708564310E+002     0.436977755378E+000
     0.152109752747E-001    -0.169216421805E+002     0.195534499067E-001    -0.155384189652E+002     0.450370969815E+000
     0.161246329208E-001    -0.142877457019E+002     0.191523752051E-001    -0.137867500265E+002     0.462967351546E+000
     0.170931099734E-001    -0.113759274485E+002     0.174308046234E-001    -0.118212039798E+002     0.474415928780E+000
     0.181196955938E-001    -0.825277449691E+001     0.154385647911E-001    -0.968466000093E+001     0.484358074108E+000
     0.192078762926E-001    -0.510098508348E+001     0.129758866107E-001    -0.749873556435E+001     0.492518065631E+000
     0.203613477710E-001    -0.223328086024E+001     0.874078210485E-002    -0.548669399876E+001     0.498846818701E+000
     0.215840274722E-001    -0.188383900105E-001     0.624239502088E-002    -0.391680200947E+001     0.503635819093E+000
     0.228800678855E-001     0.135257575868E+001    -0.795783728790E-003    -0.293099191859E+001     0.507434503211E+000
     0.242538706494E-001     0.201985288406E+001    -0.614436676085E-002    -0.245870054397E+001     0.510812283361E+000
     0.257101015006E-001     0.224732828194E+001    -0.135505398479E-001    -0.229804937361E+001     0.514158831933E+000
     0.272537061195E-001     0.225093069735E+001    -0.171457518028E-001    -0.229790560488E+001     0.517705988376E+000
     0.288899269272E-001     0.209620667158E+001    -0.244750466370E-001    -0.240593743447E+001     0.521642836955E+000
     0.306243208897E-001     0.191846374645E+001    -0.255937456111E-001    -0.253308994062E+001     0.526036437101E+000
     0.324627783907E-001     0.172296222771E+001    -0.265980650760E-001    -0.267090196157E+001     0.530947020322E+000
     0.344115432366E-001     0.154571657180E+001    -0.230414531076E-001    -0.279572387010E+001     0.536395413751E+000
     0.364772338618E-001     0.140478703917E+001    -0.164493375285E-001    -0.289423746359E+001     0.542374109506E+000
     0.386668658063E-001     0.129268097873E+001    -0.806520722326E-002    -0.297259439650E+001     0.548883021111E+000
     0.409878755421E-001     0.119918919497E+001    -0.589192620332E-003    -0.303780773536E+001     0.555933802573E+000
     0.434481457293E-001     0.111652727898E+001     0.441330103571E-002    -0.309567099950E+001     0.563549997383E+000
     0.460560319869E-001     0.104314280534E+001     0.648928023217E-002    -0.314757726012E+001     0.571758538309E+000
     0.488203912708E-001     0.980371946501E+000     0.421638671523E-002    -0.319179899399E+001     0.580581825189E+000
     0.517506119535E-001     0.945380781971E+000     0.382498928969E-002    -0.321664970855E+001     0.590007325358E+000
     0.548566457095E-001     0.941857816503E+000     0.539516890443E-002    -0.321958963223E+001     0.600007493477E+000
     0.581490413132E-001     0.971827361367E+000     0.637538772606E-002    -0.319829190745E+001     0.610537556613E+000
     0.616389804647E-001     0.104442586180E+001     0.778988448652E-002    -0.314649870924E+001     0.621518679301E+000
     0.653383157655E-001     0.116410924416E+001     0.924284434592E-002    -0.306188960844E+001     0.632845687225E+000
     0.692596109728E-001     0.132691591891E+001     0.970144626826E-002    -0.294700248566E+001     0.644401816564E+000
     0.734161836681E-001     0.151957126082E+001     0.862957455884E-002    -0.281077787244E+001     0.656085074184E+000
     0.778221504872E-001     0.172578914567E+001     0.438465749114E-002    -0.266546040954E+001     0.667829020196E+000
     0.824924750635E-001     0.191476033665E+001    -0.179641142040E-002    -0.253240180800E+001     0.679656161572E+000
     0.874430188470E-001     0.206167356686E+001    -0.911190738935E-002    -0.242991361346E+001     0.691685639882E+000
     0.926905949743E-001     0.212909786690E+001    -0.161923133896E-001    -0.238311142303E+001     0.704191487161E+000
     0.982530253690E-001     0.212780960503E+001    -0.187900990550E-001    -0.238428488565E+001     0.717454317718E+000
     0.104149201269E+000     0.208345760954E+001    -0.154705418245E-001    -0.241506333387E+001     0.731694248103E+000
     0.110399147386E+000     0.202393398759E+001    -0.805086073519E-002    -0.245609525589E+001     0.747044793578E+000
     0.117024089912E+000     0.196489391092E+001     0.279617896832E-003    -0.249674696691E+001     0.763585598839E+000
     0.124046528610E+000     0.192485500615E+001     0.763243230167E-002    -0.252413877566E+001     0.781311289692E+000
     0.131490313229E+000     0.192048241500E+001     0.131595249761E-001    -0.252661135030E+001     0.800119095494E+000
     0.139380724499E+000     0.195434480533E+001     0.156943368423E-001    -0.250244116104E+001     0.819864773751E+000
     0.147744559993E+000     0.202092490565E+001     0.147103031238E-001    -0.245582202041E+001     0.840405233617E+000
     0.156610225139E+000     0.211494371171E+001     0.107801758013E-001    -0.239002957370E+001     0.861594651046E+000
     0.166007829686E+000     0.223668123279E+001     0.598817131983E-002    -0.230456064798E+001     0.883252073782E+000
     0.175969289968E+000     0.237555398707E+001     0.120412046015E-002    -0.220691644738E+001     0.905236187590E+000
     0.185969289968E+000     0.248555181097E+001    -0.440547109015E-002    -0.212986455273E+001     0.926534878680E+000
     0.195969289968E+000     0.253200812608E+001    -0.104640278998E-001    -0.209796338173E+001     0.947514773453E+000
     0.205969289968E+000     0.251598341914E+001    -0.149537017286E-001    -0.211042951488E+001     0.968619598376E+000
     0.215969289968E+000     0.246878616841E+001    -0.156171314066E-001    -0.214378929249E+001     0.990058060134E+000
