 #        time                      h  [L]            Darcian flow [L.T^{-1}]   in    x         z              directions   cumulative flux
 #-----------------------------------------------------------------------------------------------

     0.100000000000E-005    -0.278499999999E+003    -0.539383555364E-010    -0.402787739912E-009     0.406383205387E-015
     0.205999994278E-005    -0.278499999994E+003    -0.373413729171E-009    -0.279327288146E-008     0.339359228826E-014
     0.318359982147E-005    -0.278499999975E+003    -0.151005548189E-008    -0.113120146153E-007     0.162165176865E-013
     0.437461562859E-005    -0.278499999922E+003    -0.465752814940E-008    -0.349406428143E-007     0.581994631675E-013
     0.563709231599E-005    -0.278499999796E+003    -0.121329499609E-007    -0.911572163882E-007     0.174298226332E-012
     0.697531753239E-005    -0.278499999527E+003    -0.281214664460E-007    -0.211614926494E-006     0.459976225405E-012
     0.839383618521E-005    -0.278499998991E+003    -0.598027574112E-007    -0.450765794440E-006     0.110499862094E-011
     0.989746587602E-005    -0.278499997987E+003    -0.119023891943E-006    -0.898721179975E-006     0.246814193512E-011
     0.114913132622E-004    -0.278499996188E+003    -0.224746122536E-006    -0.170014327343E-005     0.520148470438E-011
     0.131807914004E-004    -0.278499993083E+003    -0.406577287995E-006    -0.308164557493E-005     0.104529753846E-010
     0.149716381303E-004    -0.278499987885E+003    -0.709815030370E-006    -0.539109871384E-005     0.201909311463E-010
     0.168699355614E-004    -0.278499979407E+003    -0.120257623640E-005    -0.915347348538E-005     0.377162641390E-010
     0.188821307298E-004    -0.278499965876E+003    -0.198578545347E-005    -0.151494978756E-004     0.684607777508E-010
     0.210150574931E-004    -0.278499944686E+003    -0.320705642710E-005    -0.245255880587E-004     0.121217404285E-009
     0.232759597402E-004    -0.278499912041E+003    -0.507983982749E-005    -0.389463912111E-004     0.210017233718E-009
     0.256725159928E-004    -0.278499862474E+003    -0.790964809233E-005    -0.608050485954E-004     0.356967693814E-009
     0.282128654833E-004    -0.278499788175E+003    -0.121297308500E-004    -0.935111932415E-004     0.596508960405E-009
     0.309056357980E-004    -0.278499678077E+003    -0.183492878035E-004    -0.141883031016E-003     0.981749172637E-009
     0.337599721774E-004    -0.278499516612E+003    -0.274182002950E-004    -0.212677961363E-003     0.159382747107E-008
     0.367855685763E-004    -0.278499282036E+003    -0.405133707442E-004    -0.315306468502E-003     0.255566024671E-008
     0.399927005860E-004    -0.278498944165E+003    -0.592531096774E-004    -0.462786890699E-003     0.405199489228E-008
     0.433922603327E-004    -0.278498461368E+003    -0.858476221726E-004    -0.673014597416E-003     0.635848648146E-008
     0.469957934698E-004    -0.278497776547E+003    -0.123295530464E-003    -0.970438502449E-003     0.988360522209E-008
     0.508155383889E-004    -0.278496811858E+003    -0.175638506862E-003    -0.138826105367E-002     0.152286795842E-007
     0.548644677845E-004    -0.278495461759E+003    -0.248288429542E-003    -0.197130505920E-002     0.232734150424E-007
     0.591563327122E-004    -0.278493583966E+003    -0.348443909481E-003    -0.277972185030E-002     0.352969708241E-007
     0.637057092900E-004    -0.278490987750E+003    -0.485615400132E-003    -0.389374989696E-002     0.531483387747E-007
     0.685280482021E-004    -0.278487418904E+003    -0.672280147345E-003    -0.541977011173E-002     0.794846096090E-007
     0.736397271730E-004    -0.278482540606E+003    -0.924689620050E-003    -0.749794208163E-002     0.118102045607E-006
     0.790581065897E-004    -0.278475909248E+003    -0.126385234188E-002    -0.103117419553E-001     0.174393074046E-006
     0.848015884613E-004    -0.278466944185E+003    -0.171671366196E-002    -0.140997543633E-001     0.255972795641E-006
     0.908896789166E-004    -0.278454890240E+003    -0.231755030467E-002    -0.191700932448E-001     0.373531838315E-006
     0.973430544509E-004    -0.278438771689E+003    -0.310959076017E-002    -0.259178344216E-001     0.541988884259E-006
     0.104183632148E-003    -0.278417336388E+003    -0.414686189911E-002    -0.348458298200E-001     0.782036473381E-006
     0.111434644115E-003    -0.278388988686E+003    -0.549624675741E-002    -0.465892321460E-001     0.112219822945E-005
     0.119120716386E-003    -0.278351709846E+003    -0.723971741332E-002    -0.619439817503E-001     0.160154488121E-005
     0.127267952553E-003    -0.278302964854E+003    -0.947667954748E-002    -0.818993864268E-001     0.227325063138E-005
     0.135904022424E-003    -0.278239594806E+003    -0.123263311100E-001    -0.107674752519E+000     0.320921060725E-005
     0.145058255993E-003    -0.278157694548E+003    -0.159298962929E-001    -0.140759795730E+000     0.450598402222E-005
     0.154761743052E-003    -0.278052475928E+003    -0.204525479163E-001    -0.182958268284E+000     0.629237555625E-005
     0.165047438780E-003    -0.277918117958E+003    -0.260847771208E-001    -0.236433884206E+000     0.873901800626E-005
     0.175950275662E-003    -0.277747606371E+003    -0.330429103133E-001    -0.303757208470E+000     0.120703704155E-004
     0.187507282134E-003    -0.277532566569E+003    -0.415684118642E-001    -0.387951703981E+000     0.165795947123E-004
     0.199757708333E-003    -0.277263095772E+003    -0.519255503346E-001    -0.492536611233E+000     0.226468163400E-004
     0.212743159403E-003    -0.276927602237E+003    -0.643969506862E-001    -0.621563779443E+000     0.307613051148E-004
     0.226507736794E-003    -0.276512661762E+003    -0.792765116970E-001    -0.779644987336E+000     0.415481247580E-004
     0.241098188040E-003    -0.276002904116E+003    -0.968591465029E-001    -0.971965700861E+000     0.557997846028E-004
     0.256564065527E-003    -0.275380944455E+003    -0.117426819391E+000    -0.120428063451E+001     0.745133743251E-004
     0.272957894778E-003    -0.274627376784E+003    -0.141230425171E+000    -0.148288594726E+001     0.989335596763E-004
     0.290335352846E-003    -0.273720847836E+003    -0.168467219967E+000    -0.181456247899E+001     0.130601650125E-003
     0.308755457403E-003    -0.272638229538E+003    -0.199253809981E+000    -0.220648424631E+001     0.171410704016E-003
     0.328280767180E-003    -0.271354905794E+003    -0.233595209907E+000    -0.266608672971E+001     0.223666303276E-003
     0.348977594427E-003    -0.269845182757E+003    -0.271351352775E+000    -0.320089094321E+001     0.290152213288E-003
     0.370916230124E-003    -0.268082815749E+003    -0.312204372497E+000    -0.381828430920E+001     0.374199715440E-003
     0.394171182707E-003    -0.266041537293E+003    -0.355649009506E+000    -0.452530331580E+001     0.479759927389E-003
     0.418821431115E-003    -0.263695573379E+003    -0.400980483575E+000    -0.532842720231E+001     0.611478367255E-003
     0.444950693017E-003    -0.261021093429E+003    -0.447145603907E+000    -0.623295229637E+001     0.774759356596E-003
     0.472647709137E-003    -0.257997552234E+003    -0.492772769361E+000    -0.724234452821E+001     0.975814473398E-003
     0.502006544641E-003    -0.254608919673E+003    -0.536188266600E+000    -0.835762614537E+001     0.122168909016E-002
     0.533126908594E-003    -0.250844739463E+003    -0.575474425208E+000    -0.957680257221E+001     0.152026026605E-002
     0.566114492604E-003    -0.246700960164E+003    -0.608565726122E+000    -0.108943657380E+002     0.188019933819E-002
     0.601081329767E-003    -0.242180494086E+003    -0.633381881280E+000    -0.123009172734E+002     0.231089332271E-002
     0.638146175159E-003    -0.237293470713E+003    -0.647992172022E+000    -0.137829663608E+002     0.282232111287E-002
     0.677434909153E-003    -0.232057167737E+003    -0.650798323374E+000    -0.153229632976E+002     0.342488368260E-002
     0.719080964939E-003    -0.226495623880E+003    -0.640717277146E+000    -0.168996253802E+002     0.412919206659E-002
     0.763225781689E-003    -0.220638960411E+003    -0.617340279325E+000    -0.184885932722E+002     0.494582248472E-002
     0.810019284919E-003    -0.214522459686E+003    -0.581042451073E+000    -0.200634214716E+002     0.588505388043E-002
     0.859620395664E-003    -0.208185464965E+003    -0.533019056262E+000    -0.215968583737E+002     0.695660824905E-002
     0.912197570216E-003    -0.201670170927E+003    -0.475232292097E+000    -0.230623186259E+002     0.816941721377E-002
     0.967929372233E-003    -0.195020361149E+003    -0.410266526262E+000    -0.244354091499E+002     0.953143853409E-002
     0.102700507918E-002    -0.188280091059E+003    -0.341115291699E+000    -0.256953724991E+002     0.110495445839E-001
     0.108962532517E-002    -0.181491587728E+003    -0.271119442073E+000    -0.268267796128E+002     0.127295299103E-001
     0.115600278233E-002    -0.174694690837E+003    -0.203226255146E+000    -0.278197833266E+002     0.145761856572E-001
     0.122636288312E-002    -0.167930426115E+003    -0.138951772354E+000    -0.286671755235E+002     0.165932347104E-001
     0.130094458593E-002    -0.161238650186E+003    -0.799161994465E-001    -0.293651883489E+002     0.187833485712E-001
     0.138000118665E-002    -0.154654942727E+003    -0.272958151431E-001    -0.299150582001E+002     0.211483323672E-001
     0.146380117888E-002    -0.148209587222E+003     0.183124888410E-001    -0.303224914672E+002     0.236893573801E-001
     0.155262916586E-002    -0.141927332326E+003     0.568008071909E-001    -0.305964669120E+002     0.264071846277E-001
     0.164678682697E-002    -0.135827478815E+003     0.884824248489E-001    -0.307480239865E+002     0.293023586374E-001
     0.174659394236E-002    -0.129924210138E+003     0.113959409603E+000    -0.307892016763E+002     0.323753610908E-001
     0.185238947896E-002    -0.124227085429E+003     0.133981995271E+000    -0.307322316190E+002     0.356267249241E-001
     0.196453274170E-002    -0.118741638810E+003     0.149331707304E+000    -0.305889869481E+002     0.390571146015E-001
     0.208340459379E-002    -0.113470023986E+003     0.160744557483E+000    -0.303706472500E+002     0.426673802560E-001
     0.220940875020E-002    -0.108411647019E+003     0.168873951135E+000    -0.300875255756E+002     0.464585932507E-001
     0.234297314879E-002    -0.103563742335E+003     0.174285290013E+000    -0.297490077522E+002     0.504320697674E-001
     0.248455140365E-002    -0.989218730187E+002     0.177459367380E+000    -0.293635563223E+002     0.545893867473E-001
     0.263462434571E-002    -0.944803635340E+002     0.178782738735E+000    -0.289387477445E+002     0.589323926387E-001
     0.279370165569E-002    -0.902326196126E+002     0.178565167100E+000    -0.284813615760E+002     0.634632200674E-001
     0.296232359518E-002    -0.861713327099E+002     0.177046190629E+000    -0.279975024689E+002     0.681843076261E-001
     0.314106284138E-002    -0.822884798895E+002     0.174370321834E+000    -0.274928110149E+002     0.730984507781E-001
     0.333052643213E-002    -0.785742667302E+002     0.170281587748E+000    -0.269733554808E+002     0.782090213959E-001
     0.353135782749E-002    -0.750166540286E+002     0.165493530299E+000    -0.264458317230E+002     0.835202786746E-001
     0.374423909507E-002    -0.716135864609E+002     0.161162640077E+000    -0.259074464660E+002     0.890355954287E-001
     0.396989322653E-002    -0.683677865381E+002     0.157327974180E+000    -0.253560061323E+002     0.947573931085E-001
     0.420908659296E-002    -0.652716987549E+002     0.153350688204E+000    -0.247975346931E+002     0.100688912328E+000
     0.446263154769E-002    -0.623153803103E+002     0.148768554575E+000    -0.242375269357E+002     0.106834330757E+000
     0.473138918520E-002    -0.594835312311E+002     0.141254373097E+000    -0.236835160723E+002     0.113199569794E+000
     0.501627226558E-002    -0.567648984355E+002     0.134297876059E+000    -0.231378688262E+002     0.119791268171E+000
     0.531824831448E-002    -0.541736151529E+002     0.131054307372E+000    -0.225860273333E+002     0.126611822281E+000
     0.563834290904E-002    -0.517135347351E+002     0.128402544157E+000    -0.220291500929E+002     0.133663353931E+000
     0.597764316095E-002    -0.493731974613E+002     0.125932301248E+000    -0.214756972209E+002     0.140950188687E+000
     0.633730140856E-002    -0.471432336116E+002     0.122992736750E+000    -0.209289449059E+002     0.148477586314E+000
     0.671853913045E-002    -0.450164138620E+002     0.119159131490E+000    -0.203904836831E+002     0.156251340597E+000
     0.712265109384E-002    -0.429858746080E+002     0.114726232741E+000    -0.198615823703E+002     0.164277777545E+000
     0.750000000000E-002    -0.412594878039E+002     0.110536264992E+000    -0.194006701657E+002     0.171598718034E+000
     0.789998981893E-002    -0.395890690321E+002     0.106141718462E+000    -0.189459518341E+002     0.179177024802E+000
     0.832397900412E-002    -0.379718643691E+002     0.101391100376E+000    -0.184982338943E+002     0.187020193731E+000
     0.877340751615E-002    -0.364031365415E+002     0.955425206782E-001    -0.180592996563E+002     0.195136671488E+000
     0.924980171319E-002    -0.348655274189E+002     0.868049810070E-001    -0.176389385234E+002     0.203539861196E+000
     0.975477953479E-002    -0.333879156719E+002     0.838209874289E-001    -0.172109112387E+002     0.212231092734E+000
     0.102900559968E-001    -0.319720721718E+002     0.831782733127E-001    -0.167824986565E+002     0.221214479572E+000
     0.108574490159E-001    -0.306140136504E+002     0.815797995033E-001    -0.163580406123E+002     0.230496033042E+000
     0.114588855837E-001    -0.293027678222E+002     0.790238146916E-001    -0.159419277099E+002     0.240084209125E+000
     0.120964083111E-001    -0.280272671632E+002     0.765099608987E-001    -0.155371646280E+002     0.249989624790E+000
     0.127721823657E-001    -0.267985439901E+002     0.743275645560E-001    -0.151312415588E+002     0.260215048615E+000
     0.134885028249E-001    -0.256133571339E+002     0.726606036680E-001    -0.147281744845E+002     0.270765269713E+000
     0.142478024706E-001    -0.244624232859E+002     0.703966519781E-001    -0.143292071205E+002     0.281645562903E+000
     0.150000000000E-001    -0.234063344926E+002     0.681963969370E-001    -0.139580424102E+002     0.292144893232E+000
     0.157973293381E-001    -0.223623097370E+002     0.655158654953E-001    -0.135867007092E+002     0.302978094261E+000
     0.166424983909E-001    -0.213223346396E+002     0.619617249107E-001    -0.132136119875E+002     0.314145952971E+000
     0.175383775384E-001    -0.202719272588E+002     0.570229574567E-001    -0.128401439501E+002     0.325649283623E+000
     0.184880093836E-001    -0.192156171102E+002     0.532676538070E-001    -0.124526367938E+002     0.337474812269E+000
     0.194946190851E-001    -0.181333167979E+002     0.461614559503E-001    -0.120571453344E+002     0.349611740685E+000
     0.205616253111E-001    -0.170281920771E+002     0.462027668750E-001    -0.116407405917E+002     0.362032581206E+000
     0.216926518497E-001    -0.158979088503E+002     0.460251892215E-001    -0.111976285261E+002     0.374697503218E+000
     0.225000000000E-001    -0.151095385205E+002     0.451548852312E-001    -0.108818497841E+002     0.383483020151E+000
     0.233557889931E-001    -0.142764790751E+002     0.426630158141E-001    -0.105495396777E+002     0.392511273915E+000
     0.242629252769E-001    -0.133851948961E+002     0.396241438169E-001    -0.102039180612E+002     0.401767688015E+000
     0.252244896858E-001    -0.124623148873E+002     0.383179362717E-001    -0.982076212979E+001     0.411211055227E+000
     0.262437479042E-001    -0.114951773026E+002     0.377504756906E-001    -0.941361172386E+001     0.420806033492E+000
     0.273241615574E-001    -0.104869354122E+002     0.365921062542E-001    -0.897530949736E+001     0.430503161005E+000
     0.284693999679E-001    -0.942527566522E+001     0.330449059707E-001    -0.851403546649E+001     0.440253834890E+000
     0.296833526175E-001    -0.831064707046E+001     0.306871489939E-001    -0.802981901939E+001     0.450001726148E+000
     0.300000000000E-001    -0.802573250785E+001     0.302451263489E-001    -0.789984943502E+001     0.452503211127E+000
     0.303356462073E-001    -0.772547057737E+001     0.298871763166E-001    -0.776146140720E+001     0.455108335525E+000
     0.306914311678E-001    -0.740716881943E+001     0.293315627495E-001    -0.761417378856E+001     0.457817364147E+000
     0.310685632056E-001    -0.707022200171E+001     0.271068983147E-001    -0.746143710559E+001     0.460631329696E+000
     0.314683231441E-001    -0.670689632017E+001     0.258468367157E-001    -0.730514068331E+001     0.463551650566E+000
     0.318920686560E-001    -0.632693687152E+001     0.271092626162E-001    -0.713500187135E+001     0.466575097409E+000
     0.323412388743E-001    -0.593738277539E+001     0.272446837826E-001    -0.694756388186E+001     0.469695760189E+000
     0.328173592801E-001    -0.552857041202E+001     0.259628533382E-001    -0.675440237698E+001     0.472911692748E+000
     0.333220468830E-001    -0.510834756835E+001     0.264137832799E-001    -0.654664131522E+001     0.476215728353E+000
     0.338570157132E-001    -0.466730573793E+001     0.250693463988E-001    -0.632969123005E+001     0.479601942424E+000
     0.344240826425E-001    -0.420213450036E+001     0.248714527049E-001    -0.610855860891E+001     0.483065932709E+000
     0.350251735552E-001    -0.372284519493E+001     0.245237249909E-001    -0.587930422989E+001     0.486599959798E+000
     0.356623298883E-001    -0.324133743708E+001     0.223915095518E-001    -0.562990266232E+001     0.490187116305E+000
     0.363377155649E-001    -0.272906066594E+001     0.406395869535E-002    -0.539207421298E+001     0.493828847030E+000
     0.370536243434E-001    -0.222957662289E+001     0.212376557746E-001    -0.512711143709E+001     0.497499422606E+000
     0.375000000000E-001    -0.193640527324E+001     0.286217969980E-001    -0.496254155878E+001     0.499714617196E+000
     0.379731581705E-001    -0.163811405407E+001     0.262582258393E-001    -0.478957945429E+001     0.501980879905E+000
     0.384747058041E-001    -0.132524926749E+001     0.150109240576E-001    -0.462106523509E+001     0.504298576466E+000
     0.390063462670E-001    -0.100555767586E+001     0.193464315864E-001    -0.444864838425E+001     0.506663680317E+000
     0.395698851273E-001    -0.700025636730E+000     0.291665036367E-001    -0.425109842774E+001     0.509059395864E+000
     0.401672362869E-001    -0.399569680941E+000     0.283497287513E-001    -0.399669080375E+001     0.511446883811E+000
     0.408004284820E-001    -0.107865457584E+000     0.141543796089E-001    -0.387977809718E+001     0.513903545369E+000
     0.414716121725E-001     0.175634016845E+000     0.111141753998E-001    -0.387269468534E+001     0.516502845585E+000
     0.421830668460E-001     0.447155158884E+000    -0.576172307334E-003    -0.356412219971E+001     0.519038557014E+000
     0.429372087593E-001     0.686552128478E+000    -0.470030688402E-002    -0.337985159965E+001     0.521587447230E+000
     0.437365991442E-001     0.914819292562E+000    -0.604611380334E-002    -0.322227894561E+001     0.524163310571E+000
     0.445839529064E-001     0.112087103735E+001    -0.669678962961E-002    -0.308319548565E+001     0.526775874029E+000
     0.450000000000E-001     0.124186674268E+001    -0.785544499788E-002    -0.299665113336E+001     0.528022626307E+000
     0.454410098954E-001     0.133768028343E+001    -0.943869666238E-002    -0.292875715253E+001     0.529314243900E+000
     0.459084803593E-001     0.142867756254E+001    -0.117093234832E-001    -0.286423080162E+001     0.530653198390E+000
