 #        time                      h  [L]            Darcian flow [L.T^{-1}]   in    x         z              directions   cumulative flux
 #-----------------------------------------------------------------------------------------------

     0.100000000000E-005    -0.278499999997E+003    -0.244017722025E-009    -0.183129800275E-008     0.184748397112E-014
     0.205999994278E-005    -0.278499999981E+003    -0.170130686494E-008    -0.127821255584E-007     0.155160251505E-013
     0.318359982147E-005    -0.278499999923E+003    -0.692971953741E-008    -0.521248645738E-007     0.745988185108E-013
     0.437461562859E-005    -0.278499999759E+003    -0.215389708791E-007    -0.162211845692E-006     0.269491406764E-012
     0.563709231599E-005    -0.278499999365E+003    -0.565761211830E-007    -0.426616695204E-006     0.812800507492E-012
     0.697531753239E-005    -0.278499998511E+003    -0.132306481350E-006    -0.998971481816E-006     0.216132324307E-011
     0.839383618521E-005    -0.278499996795E+003    -0.284079783639E-006    -0.214783564569E-005     0.523460186059E-011
     0.989746587602E-005    -0.278499993539E+003    -0.571279359764E-006    -0.432533861378E-005     0.117947909095E-010
     0.114913132622E-004    -0.278499987631E+003    -0.109078686937E-005    -0.827076326744E-005     0.250912749977E-010
     0.131807914004E-004    -0.278499977294E+003    -0.199700713463E-005    -0.151650694611E-004     0.509335189728E-010
     0.149716381303E-004    -0.278499959734E+003    -0.353134879767E-005    -0.268591345793E-004     0.994480670532E-010
     0.168699355614E-004    -0.278499930634E+003    -0.606522676477E-005    -0.462078966362E-004     0.187916806700E-009
     0.188821307298E-004    -0.278499883411E+003    -0.101622416915E-004    -0.775555081877E-004     0.345307620700E-009
     0.210150574931E-004    -0.278499808143E+003    -0.166673089327E-004    -0.127434101239E-003     0.619430197849E-009
     0.232759597402E-004    -0.278499690030E+003    -0.268332730862E-004    -0.205562058442E-003     0.108812883605E-008
     0.256725159928E-004    -0.278499507213E+003    -0.424990682427E-004    -0.326258116452E-003     0.187663055002E-008
     0.282128654833E-004    -0.278499227687E+003    -0.663378590322E-004    -0.510426583674E-003     0.318419758759E-008
     0.309056357980E-004    -0.278498805008E+003    -0.102198904025E-003    -0.788317823527E-003     0.532472067822E-008
     0.337599721774E-004    -0.278498172337E+003    -0.155573170497E-003    -0.120332837930E-002     0.878801087794E-008
     0.367855685763E-004    -0.278497234299E+003    -0.234220056542E-003    -0.181717827509E-002     0.143315408658E-007
     0.399927005860E-004    -0.278495855937E+003    -0.349000974552E-003    -0.271689090995E-002     0.231165644355E-007
     0.433922603327E-004    -0.278493847890E+003    -0.514974989114E-003    -0.402410539224E-002     0.369083162349E-007
     0.469957934698E-004    -0.278490946683E+003    -0.752821962362E-003    -0.590737342110E-002     0.583678936070E-007
     0.508155383889E-004    -0.278486788779E+003    -0.109066920796E-002    -0.859823273155E-002     0.914741244535E-007
     0.548644677845E-004    -0.278480876737E+003    -0.156640745475E-002    -0.124120037895E-001     0.142128071203E-006
     0.591563327122E-004    -0.278472535513E+003    -0.223058934495E-002    -0.177744191634E-001     0.219011833877E-006
     0.637057092900E-004    -0.278460856600E+003    -0.315000642163E-002    -0.252553544280E-001     0.334798201873E-006
     0.685280482021E-004    -0.278444627413E+003    -0.441203569555E-002    -0.356110695408E-001     0.507839844999E-006
     0.736397271730E-004    -0.278422243029E+003    -0.612983115920E-002    -0.498364710467E-001     0.764507659471E-006
     0.790581065897E-004    -0.278391597292E+003    -0.844840593058E-002    -0.692289488303E-001     0.114239924281E-005
     0.848015884613E-004    -0.278349950217E+003    -0.115516046509E-001    -0.954653119043E-001     0.169470200849E-005
     0.908896789166E-004    -0.278293768872E+003    -0.156699019550E-001    -0.130693241096E+000     0.249607301199E-005
     0.973430544509E-004    -0.278218539332E+003    -0.210888802867E-001    -0.177638498659E+000     0.365049111637E-005
     0.104183632148E-003    -0.278118548074E+003    -0.281581363353E-001    -0.239728896173E+000     0.530164878817E-005
     0.111434644115E-003    -0.277986632433E+003    -0.373002318088E-001    -0.321235719409E+000     0.764658272592E-005
     0.119120716386E-003    -0.277813901585E+003    -0.490191239920E-001    -0.427432901268E+000     0.109533964954E-004
     0.127267952553E-003    -0.277589432438E+003    -0.639072572368E-001    -0.564773623296E+000     0.155841050910E-004
     0.135904022424E-003    -0.277299948956E+003    -0.826501340600E-001    -0.741083058989E+000     0.220238293038E-004
     0.145058255993E-003    -0.276929499398E+003    -0.106026679935E+000    -0.965764461631E+000     0.309177815707E-004
     0.154761743052E-003    -0.276459153690E+003    -0.134903043851E+000    -0.125001355502E+001     0.431177035236E-004
     0.165047438780E-003    -0.275866752671E+003    -0.170216632257E+000    -0.160703301427E+001     0.597396195350E-004
     0.175950275662E-003    -0.275126751453E+003    -0.212946196775E+000    -0.205223449431E+001     0.822349292801E-004
     0.187507282134E-003    -0.274210209293E+003    -0.264062817344E+000    -0.260340984831E+001     0.112476927905E-003
     0.199757708333E-003    -0.273084986063E+003    -0.324455928806E+000    -0.328084541800E+001     0.152864742516E-003
     0.212743159403E-003    -0.271716207490E+003    -0.394828618742E+000    -0.410734300784E+001     0.206446301696E-003
     0.226507736794E-003    -0.270067054512E+003    -0.475557946349E+000    -0.510809783488E+001     0.277061157951E-003
     0.241098188040E-003    -0.268099913058E+003    -0.566519713852E+000    -0.631036715666E+001     0.369502552067E-003
     0.256564065527E-003    -0.265777887803E+003    -0.666883484538E+000    -0.774284411651E+001     0.489695774524E-003
     0.272957894778E-003    -0.263066637990E+003    -0.774892701004E+000    -0.943463228176E+001     0.644886333625E-003
     0.290335352846E-003    -0.259936439535E+003    -0.887655764047E+000    -0.114137036853E+002     0.843826403636E-003
     0.308755457403E-003    -0.256364322354E+003    -0.100098530714E+001    -0.137047287167E+002     0.109694140347E-002
     0.328280767180E-003    -0.252336083438E+003    -0.110933247966E+001    -0.163262080189E+002     0.141645070353E-002
     0.348977594427E-003    -0.247847944542E+003    -0.120586858687E+001    -0.192869359942E+002     0.181640853312E-002
     0.370916230124E-003    -0.242907620317E+003    -0.128276599289E+001    -0.225819976702E+002     0.231262541384E-002
     0.394171182707E-003    -0.237534603053E+003    -0.133172178965E+001    -0.261887381341E+002     0.292243017351E-002
     0.418821431115E-003    -0.231759566396E+003    -0.134474727350E+001    -0.300633995082E+002     0.366424143815E-002
     0.444950693017E-003    -0.225622941668E+003    -0.131520851759E+001    -0.341393024675E+002     0.455693792800E-002
     0.472647709137E-003    -0.219172866726E+003    -0.123904214821E+001    -0.383274849993E+002     0.561904946155E-002
     0.502006544641E-003    -0.212462856652E+003    -0.111596878575E+001    -0.425204508266E+002     0.686783025601E-002
     0.533126908594E-003    -0.205549603761E+003    -0.950419884793E+000    -0.465991388299E+002     0.831831401028E-002
     0.566114492604E-003    -0.198491225254E+003    -0.751828963124E+000    -0.504425330600E+002     0.998247612244E-002
     0.601081329767E-003    -0.191346071198E+003    -0.533976654764E+000    -0.539386602331E+002     0.118686328903E-001
     0.638146175159E-003    -0.184171953577E+003    -0.313272457833E+000    -0.569952613274E+002     0.139811853501E-001
     0.677434909153E-003    -0.177025458849E+003    -0.106188839657E+000    -0.595483125320E+002     0.163207668808E-001
     0.719080964939E-003    -0.169960960953E+003     0.735719014864E-001    -0.615668430400E+002     0.188847848914E-001
     0.763225781689E-003    -0.163029103522E+003     0.217372904398E+000    -0.630531199176E+002     0.216682698563E-001
     0.810019284919E-003    -0.156274819847E+003     0.322668076841E+000    -0.640381803028E+002     0.246648786918E-001
     0.859620395664E-003    -0.149735273158E+003     0.392435629175E+000    -0.645737497967E+002     0.278678675545E-001
     0.912197570216E-003    -0.143438271387E+003     0.433298629470E+000    -0.647224950938E+002     0.312708697338E-001
     0.967929372233E-003    -0.137401643176E+003     0.453110621506E+000    -0.645489125781E+002     0.348683855813E-001
     0.102700507918E-002    -0.131633775688E+003     0.458909745909E+000    -0.641126994046E+002     0.386559856481E-001
     0.108962532517E-002    -0.126135142274E+003     0.455834566172E+000    -0.634653557548E+002     0.426303043448E-001
     0.115600278233E-002    -0.120900364271E+003     0.447055280451E+000    -0.626495795589E+002     0.467889300022E-001
     0.122636288312E-002    -0.115920276248E+003     0.434334833504E+000    -0.617003099578E+002     0.511302775903E-001
     0.130094458593E-002    -0.111183600032E+003     0.418712834160E+000    -0.606462603831E+002     0.556534867607E-001
     0.138000118665E-002    -0.106678077464E+003     0.400976907448E+000    -0.595112328761E+002     0.603583493293E-001
     0.146380117888E-002    -0.102391132023E+003     0.381853496523E+000    -0.583150213020E+002     0.652452524281E-001
     0.155262916586E-002    -0.983102381639E+002     0.362024933924E+000    -0.570740168551E+002     0.703151244430E-001
     0.164678682697E-002    -0.944232106149E+002     0.342098394914E+000    -0.558016306317E+002     0.755693742056E-001
     0.174659394236E-002    -0.907183069420E+002     0.322538582226E+000    -0.545089356926E+002     0.810098490808E-001
     0.185238947896E-002    -0.871844268887E+002     0.303691923444E+000    -0.532050411821E+002     0.866387966579E-001
     0.196453274170E-002    -0.838112562802E+002     0.285772861987E+000    -0.518974534529E+002     0.924588346502E-001
     0.208340459379E-002    -0.805893162998E+002     0.268858442531E+000    -0.505924079680E+002     0.984729328066E-001
     0.220940875020E-002    -0.775099301369E+002     0.252914757630E+000    -0.492951183558E+002     0.104684404362E+000
     0.234297314879E-002    -0.745651424884E+002     0.237842677303E+000    -0.480099366088E+002     0.111096901359E+000
     0.248455140365E-002    -0.717476193758E+002     0.223529949532E+000    -0.467404607990E+002     0.117714409904E+000
     0.263462434571E-002    -0.690505480956E+002     0.209888671094E+000    -0.454896194080E+002     0.124541243588E+000
     0.279370165569E-002    -0.664675512794E+002     0.196867506133E+000    -0.442597480194E+002     0.131582034893E+000
     0.296232359518E-002    -0.639926235911E+002     0.184444214382E+000    -0.430526650087E+002     0.138841725387E+000
     0.314106284138E-002    -0.616200944324E+002     0.172611964295E+000    -0.418697465664E+002     0.146325555923E+000
     0.333052643213E-002    -0.593446121908E+002     0.161369264295E+000    -0.407119988706E+002     0.154039058008E+000
     0.353135782749E-002    -0.571611394956E+002     0.150715693529E+000    -0.395801235905E+002     0.161988047086E+000
     0.374423909507E-002    -0.550649477975E+002     0.140650658035E+000    -0.384745734828E+002     0.170178617787E+000
     0.396989322653E-002    -0.530516043306E+002     0.131172135381E+000    -0.373955967828E+002     0.178617140612E+000
     0.420908659296E-002    -0.511169521835E+002     0.122273941287E+000    -0.363432711535E+002     0.187310259186E+000
     0.446263154769E-002    -0.492569662600E+002     0.113964311172E+000    -0.353175561889E+002     0.196264893991E+000
     0.473138918520E-002    -0.474680415200E+002     0.106210972921E+000    -0.343181757135E+002     0.205488209991E+000
     0.501627226558E-002    -0.457470566265E+002     0.989513645730E-001    -0.333449115076E+002     0.214987652923E+000
     0.531824831448E-002    -0.440902985892E+002     0.921916522180E-001    -0.323974329285E+002     0.224770941324E+000
     0.563834290904E-002    -0.424946691490E+002     0.859074686424E-001    -0.314752084869E+002     0.234846022950E+000
     0.597764316095E-002    -0.409569870019E+002     0.800505147575E-001    -0.305775903753E+002     0.245221042620E+000
     0.633730140856E-002    -0.394744861309E+002     0.746538818179E-001    -0.297039250621E+002     0.255904337996E+000
     0.671853913045E-002    -0.380432435256E+002     0.696847306170E-001    -0.288532160323E+002     0.266904304426E+000
     0.712265109384E-002    -0.366599799468E+002     0.650017060093E-001    -0.280239273204E+002     0.278229139182E+000
     0.755100975191E-002    -0.353197209911E+002     0.605922111018E-001    -0.272141284242E+002     0.289886575609E+000
     0.800506990496E-002    -0.340164425025E+002     0.564590832273E-001    -0.264208421745E+002     0.301883254641E+000
     0.848637364120E-002    -0.327420757840E+002     0.525595665879E-001    -0.256396866314E+002     0.314223757541E+000
     0.899655557408E-002    -0.314855860433E+002     0.489712151800E-001    -0.248644350458E+002     0.326909167676E+000
     0.953734839373E-002    -0.302325352111E+002     0.456525426795E-001    -0.240863001301E+002     0.339934889236E+000
     0.101105887516E-001    -0.289641815724E+002     0.425064791215E-001    -0.232936983973E+002     0.353287799474E+000
     0.107182234982E-001    -0.276562744655E+002     0.397863458090E-001    -0.224713283262E+002     0.366942180768E+000
     0.113623162948E-001    -0.262762368117E+002     0.366839335729E-001    -0.215995208409E+002     0.380854296616E+000
     0.120450546223E-001    -0.247931593809E+002     0.343804256776E-001    -0.206555395840E+002     0.394956644701E+000
     0.127687572104E-001    -0.231606755372E+002     0.313518081713E-001    -0.196103771810E+002     0.409148743558E+000
     0.135358819124E-001    -0.213401570838E+002     0.282336838201E-001    -0.184349791706E+002     0.423290688045E+000
     0.143490340526E-001    -0.192890545114E+002     0.243591498698E-001    -0.170982755288E+002     0.437194201495E+000
     0.152109752747E-001    -0.169627362793E+002     0.223383352380E-001    -0.155674814891E+002     0.450612469329E+000
     0.161246329208E-001    -0.143438758326E+002     0.197911960071E-001    -0.138231786464E+002     0.463242135138E+000
     0.170931099734E-001    -0.114403459696E+002     0.177159520383E-001    -0.118642691275E+002     0.474732420344E+000
     0.181196955938E-001    -0.832394339877E+001     0.157535161096E-001    -0.973283236388E+001     0.484724019182E+000
     0.192078762926E-001    -0.517398244119E+001     0.130776225054E-001    -0.754904184964E+001     0.492938753143E+000
     0.203613477710E-001    -0.229710379452E+001     0.104169654947E-001    -0.553161740307E+001     0.499319327361E+000
     0.215840274722E-001    -0.685987934332E-001     0.652219061184E-002    -0.395189328220E+001     0.504151233639E+000
     0.228800678855E-001     0.132253112172E+001     0.155061650854E-003    -0.295165361189E+001     0.507976696012E+000
     0.242538706494E-001     0.200384437253E+001    -0.689477445652E-002    -0.246896510706E+001     0.511368580325E+000
     0.257101015006E-001     0.223141697879E+001    -0.137612869955E-001    -0.230843455007E+001     0.514730253666E+000
     0.272537061195E-001     0.223843181488E+001    -0.179580783252E-001    -0.230582291574E+001     0.518289640511E+000
     0.288899269272E-001     0.210146411686E+001    -0.241068038517E-001    -0.240270471488E+001     0.522221193831E+000
     0.306243208897E-001     0.192197034162E+001    -0.263716502036E-001    -0.253083270565E+001     0.526610893092E+000
     0.324627783907E-001     0.172752238089E+001    -0.263502342914E-001    -0.266754044890E+001     0.531515292100E+000
     0.344115432366E-001     0.154926839284E+001    -0.231285213207E-001    -0.279321654863E+001     0.536958800917E+000
     0.364772338618E-001     0.140949285314E+001    -0.156949778158E-001    -0.289156476352E+001     0.542931967129E+000
     0.386668658063E-001     0.129483223146E+001    -0.818401670036E-002    -0.297109648810E+001     0.549437599590E+000
     0.409878755421E-001     0.120092460995E+001    -0.688331308701E-003    -0.303660002674E+001     0.556485577997E+000
     0.434481457293E-001     0.111987090655E+001     0.521850671013E-002    -0.309387549539E+001     0.564097358469E+000
     0.460560319869E-001     0.104387778784E+001     0.612255836312E-002    -0.314689296815E+001     0.572304112927E+000
     0.488203912708E-001     0.981293442513E+000     0.432329351982E-002    -0.319119401732E+001     0.581125727831E+000
     0.517506119535E-001     0.945973309904E+000     0.370622448490E-002    -0.321616029770E+001     0.590549793512E+000
     0.548566457095E-001     0.944544060037E+000     0.528450959173E-002    -0.321772362240E+001     0.600544165179E+000
     0.581490413132E-001     0.971644797652E+000     0.638680809217E-002    -0.319841764613E+001     0.611074642371E+000
     0.616389804647E-001     0.104344358192E+001     0.775676841380E-002    -0.314723015708E+001     0.622058317474E+000
     0.653383157655E-001     0.115841286212E+001     0.724716441184E-002    -0.306564558829E+001     0.633399200108E+000
     0.692596109728E-001     0.132330146225E+001     0.920729166847E-002    -0.294947785265E+001     0.644965029828E+000
     0.734161836681E-001     0.151721003664E+001     0.824387824269E-002    -0.281261105250E+001     0.656655902349E+000
     0.778221504872E-001     0.172386914579E+001     0.474978593575E-002    -0.266681033177E+001     0.668405798821E+000
     0.824924750635E-001     0.191873812696E+001    -0.109720912498E-002    -0.253001640736E+001     0.680221797737E+000
     0.874430188470E-001     0.206105864049E+001    -0.902231155760E-002    -0.243032839880E+001     0.692253327791E+000
     0.926905949743E-001     0.212902773248E+001    -0.161318606235E-001    -0.238314890800E+001     0.704759369620E+000
     0.982530253690E-001     0.212758722979E+001    -0.188112524026E-001    -0.238446653605E+001     0.718023211491E+000
     0.104149201269E+000     0.208411675431E+001    -0.154841391710E-001    -0.241468634878E+001     0.732260919665E+000
     0.110399147386E+000     0.202441165828E+001    -0.808752840283E-002    -0.245576169553E+001     0.747609381169E+000
     0.117024089912E+000     0.196543097890E+001     0.273303788101E-003    -0.249648757844E+001     0.764148467992E+000
     0.124046528610E+000     0.192509937665E+001     0.759769544041E-002    -0.252397077756E+001     0.781872978358E+000
     0.131490313229E+000     0.192050675262E+001     0.131367629773E-001    -0.252659680296E+001     0.800680674993E+000
     0.139380724499E+000     0.195459014459E+001     0.157472377063E-001    -0.250234394140E+001     0.820425588784E+000
     0.147744559993E+000     0.202063778276E+001     0.147208462342E-001    -0.245602090983E+001     0.840967712627E+000
     0.156610225139E+000     0.211455104618E+001     0.107973907179E-001    -0.239030340458E+001     0.862159558413E+000
     0.166007829686E+000     0.223619792418E+001     0.600360190451E-002    -0.230489933167E+001     0.883820164330E+000
     0.175969289968E+000     0.237508628992E+001     0.122152977741E-002    -0.220725925045E+001     0.905807693053E+000
     0.185969289968E+000     0.248525712981E+001    -0.438037873626E-002    -0.213010187404E+001     0.927108756833E+000
     0.195969289968E+000     0.253199721664E+001    -0.104481652601E-001    -0.209798623477E+001     0.948088879343E+000
     0.205969289968E+000     0.251244325270E+001    -0.148234863818E-001    -0.211267835740E+001     0.969216182951E+000
     0.215969289968E+000     0.246865773007E+001    -0.156255153920E-001    -0.214388519986E+001     0.990655604368E+000
