 #        time                      h  [L]            Darcian flow [L.T^{-1}]   in    x         z              directions   cumulative flux
 #-----------------------------------------------------------------------------------------------

     0.100000000000E-005    -0.278499999997E+003    -0.243747915093E-009    -0.182938216714E-008     0.184554928397E-014
     0.205999994278E-005    -0.278499999981E+003    -0.169944989376E-008    -0.127684813498E-007     0.154994943326E-013
     0.318359982147E-005    -0.278499999923E+003    -0.692223456042E-008    -0.520690829582E-007     0.745190497906E-013
     0.437461562859E-005    -0.278499999759E+003    -0.215158828929E-007    -0.162037902031E-006     0.269202651411E-012
     0.563709231599E-005    -0.278499999365E+003    -0.565154827532E-007    -0.426158190166E-006     0.811927859931E-012
     0.697531753239E-005    -0.278499998512E+003    -0.132164405948E-006    -0.997895785647E-006     0.215899857027E-011
     0.839383618521E-005    -0.278499996799E+003    -0.283774199541E-006    -0.214551805936E-005     0.522896119383E-011
     0.989746587602E-005    -0.278499993546E+003    -0.570663597188E-006    -0.432066099650E-005     0.117820561595E-010
     0.114913132622E-004    -0.278499987645E+003    -0.108960847947E-005    -0.826179668286E-005     0.250641259952E-010
     0.131807914004E-004    -0.278499977319E+003    -0.199484413637E-005    -0.151485833649E-004     0.508782783702E-010
     0.149716381303E-004    -0.278499959778E+003    -0.352751290890E-005    -0.268298477138E-004     0.993399302123E-010
     0.168699355614E-004    -0.278499930710E+003    -0.605861780732E-005    -0.461573468943E-004     0.187711894774E-009
     0.188821307298E-004    -0.278499883540E+003    -0.101511309313E-004    -0.774703662878E-004     0.344929934075E-009
     0.210150574931E-004    -0.278499808355E+003    -0.166490206770E-004    -0.127293679581E-003     0.618750472705E-009
     0.232759597402E-004    -0.278499690374E+003    -0.268037215404E-004    -0.205334667649E-003     0.108693067932E-008
     0.256725159928E-004    -0.278499507762E+003    -0.424520909920E-004    -0.325895790895E-003     0.187455679178E-008
     0.282128654833E-004    -0.278499228552E+003    -0.662642699540E-004    -0.509857526393E-003     0.318066618795E-008
     0.309056357980E-004    -0.278498806351E+003    -0.102085164588E-003    -0.787435706749E-003     0.531879427730E-008
     0.337599721774E-004    -0.278498174399E+003    -0.155399549473E-003    -0.120197736801E-002     0.877819652437E-008
     0.367855685763E-004    -0.278497237429E+003    -0.233958116036E-003    -0.181513231618E-002     0.143154857419E-007
     0.399927005860E-004    -0.278495860638E+003    -0.348610182096E-003    -0.271382543511E-002     0.230905983677E-007
     0.433922603327E-004    -0.278493854881E+003    -0.514398211376E-003    -0.401955911060E-002     0.368667709360E-007
     0.469957934698E-004    -0.278490956979E+003    -0.751979548907E-003    -0.590069732196E-002     0.583021000130E-007
     0.508155383889E-004    -0.278486803799E+003    -0.108945132131E-002    -0.858852276703E-002     0.913709507039E-007
     0.548644677845E-004    -0.278480898448E+003    -0.156466425428E-002    -0.123980129794E-001     0.141967811710E-006
     0.591563327122E-004    -0.278472566616E+003    -0.222811858888E-002    -0.177544440782E-001     0.218765190819E-006
     0.637057092900E-004    -0.278460900770E+003    -0.314653803094E-002    -0.252270902121E-001     0.334422009980E-006
     0.685280482021E-004    -0.278444689602E+003    -0.440721283154E-002    -0.355714269174E-001     0.507271073868E-006
     0.736397271730E-004    -0.278422329852E+003    -0.612318742676E-002    -0.497813481793E-001     0.763655079593E-006
     0.790581065897E-004    -0.278391717503E+003    -0.843933843875E-002    -0.691529505992E-001     0.114113195657E-005
     0.848015884613E-004    -0.278350115292E+003    -0.115393428570E-001    -0.953614091489E-001     0.169283382012E-005
     0.908896789166E-004    -0.278293993717E+003    -0.156534724849E-001    -0.130552362666E+000     0.249334133471E-005
     0.973430544509E-004    -0.278218843116E+003    -0.210670682711E-001    -0.177449049658E+000     0.364652878474E-005
     0.104183632148E-003    -0.278118955213E+003    -0.281294442353E-001    -0.239476196461E+000     0.529594675070E-005
     0.111434644115E-003    -0.277987173708E+003    -0.372628372769E-001    -0.320901357311E+000     0.763844113136E-005
     0.119120716386E-003    -0.277814615409E+003    -0.489708391128E-001    -0.426993998687E+000     0.109418611474E-004
     0.127267952553E-003    -0.277590366241E+003    -0.638454926741E-001    -0.564202010702E+000     0.155678856319E-004
     0.135904022424E-003    -0.277301160653E+003    -0.825718733740E-001    -0.740344362857E+000     0.220011948089E-004
     0.145058255993E-003    -0.276931058882E+003    -0.105928471806E+000    -0.964817113883E+000     0.308864285183E-004
     0.154761743052E-003    -0.276461144239E+003    -0.134781023272E+000    -0.124880774486E+001     0.430745904132E-004
     0.165047438780E-003    -0.275869272128E+003    -0.170066585939E+000    -0.160550961834E+001     0.596807618417E-004
     0.175950275662E-003    -0.275129912975E+003    -0.212763692811E+000    -0.205032404217E+001     0.821551481081E-004
     0.187507282134E-003    -0.274214141439E+003    -0.263843423846E+000    -0.260103160810E+001     0.112369545834E-003
     0.199757708333E-003    -0.273089831934E+003    -0.324195549296E+000    -0.327790672358E+001     0.152721221032E-003
     0.212743159403E-003    -0.271722122667E+003    -0.394523971158E+000    -0.410373899631E+001     0.206255816704E-003
     0.226507736794E-003    -0.270074203544E+003    -0.475207204524E+000    -0.510371182615E+001     0.276810113821E-003
     0.241098188040E-003    -0.268108464379E+003    -0.566123312282E+000    -0.630507198742E+001     0.369174041354E-003
     0.256564065527E-003    -0.265788007088E+003    -0.666445057221E+000    -0.773650483856E+001     0.489269001107E-003
     0.272957894778E-003    -0.263078480152E+003    -0.774420083667E+000    -0.942711073912E+001     0.644336032920E-003
     0.290335352846E-003    -0.259950139788E+003    -0.887161939853E+000    -0.114048655623E+002     0.843122315839E-003
     0.308755457403E-003    -0.256379986959E+003    -0.100048912577E+001    -0.136944536357E+002     0.109604788470E-002
     0.328280767180E-003    -0.252353780967E+003    -0.110885893714E+001    -0.163144030625E+002     0.141532659284E-002
     0.348977594427E-003    -0.247867698622E+003    -0.120544842769E+001    -0.192735525083E+002     0.181500742401E-002
     0.370916230124E-003    -0.242929404871E+003    -0.128243439488E+001    -0.225670503096E+002     0.231089649537E-002
     0.394171182707E-003    -0.237558340913E+003    -0.133151592850E+001    -0.261723238942E+002     0.292031979229E-002
     0.418821431115E-003    -0.231785131737E+003    -0.134470267235E+001    -0.300457132626E+002     0.366169547317E-002
     0.444950693017E-003    -0.225650166094E+003    -0.131535422879E+001    -0.341206446787E+002     0.455390495700E-002
     0.472647709137E-003    -0.219201548088E+003    -0.123939519311E+001    -0.383082573921E+002     0.561548453755E-002
     0.502006544641E-003    -0.212492768926E+003    -0.111652876114E+001    -0.425011374457E+002     0.686369894055E-002
     0.533126908594E-003    -0.205580506182E+003    -0.951165098699E+000    -0.465802727024E+002     0.831359616947E-002
     0.566114492604E-003    -0.198522869338E+003    -0.752715695976E+000    -0.504246519329E+002     0.997716892832E-002
     0.601081329767E-003    -0.191378205347E+003    -0.534942833377E+000    -0.539222576702E+002     0.118627525134E-001
     0.638146175159E-003    -0.184204326135E+003    -0.314246004049E+000    -0.569807409891E+002     0.139747669859E-001
     0.677434909153E-003    -0.177057821278E+003    -0.107099385133E+000    -0.595359533517E+002     0.163138630050E-001
     0.719080964939E-003    -0.169993072814E+003     0.727807942143E-001    -0.615567813705E+002     0.188774619478E-001
     0.763225781689E-003    -0.163060740022E+003     0.216734623550E+000    -0.630453517941E+002     0.216606038954E-001
     0.810019284919E-003    -0.156305781239E+003     0.322189882432E+000    -0.640325829875E+002     0.246569507035E-001
     0.859620395664E-003    -0.149765393945E+003     0.392102457381E+000    -0.645701173183E+002     0.278597592942E-001
     0.912197570216E-003    -0.143467426798E+003     0.433081957054E+000    -0.647205789765E+002     0.312626606555E-001
     0.967929372233E-003    -0.137429751003E+003     0.452978691349E+000    -0.645484581488E+002     0.348601511259E-001
     0.102700507918E-002    -0.131660793075E+003     0.458835414598E+000    -0.641134707701E+002     0.386477967290E-001
     0.108962532517E-002    -0.126161058645E+003     0.455798775618E+000    -0.634671475476E+002     0.426222276092E-001
     0.115600278233E-002    -0.120925192586E+003     0.447046517993E+000    -0.626522182351E+002     0.467810284066E-001
     0.122636288312E-002    -0.115944044770E+003     0.434346515318E+000    -0.617036496221E+002     0.511226109738E-001
     0.130094458593E-002    -0.111206345998E+003     0.418740658891E+000    -0.606501774951E+002     0.556461122964E-001
     0.138000118665E-002    -0.106699842956E+003     0.401017271131E+000    -0.595156220790E+002     0.603513218741E-001
     0.146380117888E-002    -0.102411961561E+003     0.381902981481E+000    -0.583197926849E+002     0.652386248333E-001
     0.155262916586E-002    -0.983301771768E+002     0.362080307924E+000    -0.570790941027E+002     0.703089478720E-001
     0.164678682697E-002    -0.944423041602E+002     0.342156849687E+000    -0.558069494767E+002     0.755636984690E-001
     0.174659394236E-002    -0.907365992498E+002     0.322597947418E+000    -0.545144411729E+002     0.810047228558E-001
     0.185238947896E-002    -0.872019602375E+002     0.303750508552E+000    -0.532106865899E+002     0.866342677175E-001
     0.196453274170E-002    -0.838280702835E+002     0.285829610966E+000    -0.519031989549E+002     0.924549500543E-001
     0.208340459379E-002    -0.806054476817E+002     0.268912918004E+000    -0.505982192880E+002     0.984697390378E-001
     0.220940875020E-002    -0.775254128404E+002     0.252966995869E+000    -0.493009658547E+002     0.104681947426E+000
     0.234297314879E-002    -0.745800079652E+002     0.237892968784E+000    -0.480157946963E+002     0.111095226879E+000
     0.248455140365E-002    -0.717618969562E+002     0.223578610835E+000    -0.467463075108E+002     0.117713563215E+000
     0.263462434571E-002    -0.690642653574E+002     0.209935904733E+000    -0.454954360502E+002     0.124541269843E+000
     0.279370165569E-002    -0.664807343569E+002     0.196913372338E+000    -0.442655188331E+002     0.131582979176E+000
     0.296232359518E-002    -0.640052973840E+002     0.184488675115E+000    -0.430583768347E+002     0.138843632834E+000
     0.314106284138E-002    -0.616322827043E+002     0.172654937697E+000    -0.418753885136E+002     0.146328471830E+000
     0.333052643213E-002    -0.593563375829E+002     0.161410657631E+000    -0.407175619986E+002     0.154043027948E+000
     0.353135782749E-002    -0.571724235084E+002     0.150755414411E+000    -0.395856006214E+002     0.161993117007E+000
     0.374423909507E-002    -0.550758107899E+002     0.140688618581E+000    -0.384799585553E+002     0.170184834112E+000
     0.396989322653E-002    -0.530620655589E+002     0.131208261266E+000    -0.374008852525E+002     0.178624550323E+000
     0.420908659296E-002    -0.511270298725E+002     0.122308181334E+000    -0.363484594291E+002     0.187318909919E+000
     0.446263154769E-002    -0.492666783520E+002     0.113996787700E+000    -0.353226413951E+002     0.196274834072E+000
     0.473138918520E-002    -0.474776210339E+002     0.106214903401E+000    -0.343231528723E+002     0.205499487719E+000
     0.501627226558E-002    -0.457561733318E+002     0.989603230127E-001    -0.333498229592E+002     0.215000329841E+000
     0.531824831448E-002    -0.440990511373E+002     0.922088340781E-001    -0.324022269112E+002     0.224785065919E+000
     0.563834290904E-002    -0.425030991794E+002     0.859269776769E-001    -0.314798869123E+002     0.234861645095E+000
     0.597764316095E-002    -0.409651185144E+002     0.800698765097E-001    -0.305821586355E+002     0.245238214789E+000
     0.633730140856E-002    -0.394823373595E+002     0.746732409951E-001    -0.297083873587E+002     0.255923115079E+000
     0.671853913045E-002    -0.380508345871E+002     0.697032483001E-001    -0.288575769346E+002     0.266924744062E+000
     0.712265109384E-002    -0.366673309619E+002     0.650194047290E-001    -0.280281938116E+002     0.278251302970E+000
     0.755100975191E-002    -0.353268576453E+002     0.606091554498E-001    -0.272183110315E+002     0.289910531064E+000
     0.800506990496E-002    -0.340233980748E+002     0.564745279749E-001    -0.264249559888E+002     0.301909078026E+000
     0.848637364120E-002    -0.327488971637E+002     0.525746699558E-001    -0.256437556784E+002     0.314251539385E+000
     0.899655557408E-002    -0.314923346589E+002     0.489854336617E-001    -0.248684947360E+002     0.326939020711E+000
     0.953734839373E-002    -0.302392943412E+002     0.456657050398E-001    -0.240903992454E+002     0.339966959052E+000
     0.101105887516E-001    -0.289710446989E+002     0.425164054798E-001    -0.232979011301E+002     0.353322278472E+000
     0.107182234982E-001    -0.276634175480E+002     0.397936639267E-001    -0.224757273098E+002     0.366979332746E+000
     0.113623162948E-001    -0.262874806187E+002     0.360636716142E-001    -0.216045740193E+002     0.380894702632E+000
     0.120450546223E-001    -0.248025692759E+002     0.340145554743E-001    -0.206614878169E+002     0.395001111384E+000
     0.127687572104E-001    -0.231733428660E+002     0.319380438641E-001    -0.196178898440E+002     0.409198647852E+000
     0.135358819124E-001    -0.213544328569E+002     0.282551072696E-001    -0.184435022767E+002     0.423347130643E+000
     0.143490340526E-001    -0.193033138195E+002     0.241404711089E-001    -0.171072186261E+002     0.437257915932E+000
     0.152109752747E-001    -0.169857369194E+002     0.196083951058E-001    -0.155802785802E+002     0.450687210927E+000
     0.161246329208E-001    -0.143614839166E+002     0.191393439557E-001    -0.138354004387E+002     0.463328042420E+000
     0.170931099734E-001    -0.114593050020E+002     0.174316846500E-001    -0.118770622753E+002     0.474830717075E+000
     0.181196955938E-001    -0.834420239017E+001     0.155782728461E-001    -0.974666407237E+001     0.484836515038E+000
     0.192078762926E-001    -0.519236972496E+001     0.128649632513E-001    -0.756223806702E+001     0.493065608451E+000
     0.203613477710E-001    -0.231547140548E+001     0.100945073762E-001    -0.554447190293E+001     0.499461009254E+000
     0.215840274722E-001    -0.824565403180E-001     0.649297920545E-002    -0.396166673866E+001     0.504304865263E+000
     0.228800678855E-001     0.131448031086E+001    -0.589098022237E-003    -0.295798411378E+001     0.508138532293E+000
     0.242538706494E-001     0.200243402006E+001    -0.596635184545E-002    -0.247086238194E+001     0.511533019758E+000
     0.257101015006E-001     0.222937550463E+001    -0.136928367019E-001    -0.230971689143E+001     0.514896559858E+000
     0.272537061195E-001     0.223649904023E+001    -0.179863984022E-001    -0.230705019068E+001     0.518457841414E+000
     0.288899269272E-001     0.210282945589E+001    -0.240477209370E-001    -0.240198261379E+001     0.522388212307E+000
     0.306243208897E-001     0.192222437494E+001    -0.260899065400E-001    -0.253032791170E+001     0.526777031039E+000
     0.324627783907E-001     0.172919782244E+001    -0.263528000270E-001    -0.266666541777E+001     0.531679821464E+000
     0.344115432366E-001     0.154998080344E+001    -0.232399785169E-001    -0.279274327883E+001     0.537122409825E+000
     0.364772338618E-001     0.140823958762E+001    -0.166103578158E-001    -0.289183706460E+001     0.543096149080E+000
     0.386668658063E-001     0.129536117787E+001    -0.823414664971E-002    -0.297073248865E+001     0.549600984822E+000
     0.409878755421E-001     0.120137317233E+001    -0.715962341727E-003    -0.303628784749E+001     0.556648238673E+000
     0.434481457293E-001     0.112033483968E+001     0.522166728132E-002    -0.309357227006E+001     0.564259273143E+000
     0.460560319869E-001     0.104422388946E+001     0.612425901875E-002    -0.314664518131E+001     0.572465381411E+000
     0.488203912708E-001     0.981715349675E+000     0.412746674738E-002    -0.319061224894E+001     0.581285387383E+000
     0.517506119535E-001     0.946138855925E+000     0.374916569774E-002    -0.321614997324E+001     0.590709422957E+000
     0.548566457095E-001     0.947142158444E+000     0.670409010716E-002    -0.321587120960E+001     0.600698049194E+000
     0.581490413132E-001     0.971715485464E+000     0.640673284849E-002    -0.319835757641E+001     0.611228328744E+000
     0.616389804647E-001     0.103660791072E+001     0.559449185588E-002    -0.315123453563E+001     0.622225962856E+000
     0.653383157655E-001     0.116036557643E+001     0.818155056773E-002    -0.306459816054E+001     0.633562979415E+000
     0.692596109728E-001     0.132185899057E+001     0.889501621218E-002    -0.295060482332E+001     0.645133224543E+000
     0.734161836681E-001     0.151648296269E+001     0.846718804731E-002    -0.281306216655E+001     0.656825974901E+000
     0.778221504872E-001     0.172341403708E+001     0.466837615604E-002    -0.266714939116E+001     0.668577364621E+000
     0.824924750635E-001     0.191833698586E+001    -0.109105522416E-002    -0.253029780577E+001     0.680394677747E+000
     0.874430188470E-001     0.206082502518E+001    -0.900787402380E-002    -0.243049047483E+001     0.692427009895E+000
     0.926905949743E-001     0.212897509328E+001    -0.161200063566E-001    -0.238318401858E+001     0.704933235544E+000
     0.982530253690E-001     0.212747938971E+001    -0.188083389426E-001    -0.238452843894E+001     0.718197421607E+000
     0.104149201269E+000     0.208422299635E+001    -0.154931824147E-001    -0.241461577229E+001     0.732434714000E+000
     0.110399147386E+000     0.202451659361E+001    -0.809605122744E-002    -0.245568340583E+001     0.747782686376E+000
     0.117024089912E+000     0.196542091746E+001     0.223839380715E-003    -0.249638379039E+001     0.764321085577E+000
     0.124046528610E+000     0.192511796489E+001     0.761387343785E-002    -0.252393132978E+001     0.782045319267E+000
     0.131490313229E+000     0.192050463362E+001     0.131295908834E-001    -0.252659907006E+001     0.800853032500E+000
     0.139380724499E+000     0.195418642334E+001     0.156970087206E-001    -0.250256516599E+001     0.820599689320E+000
     0.147744559993E+000     0.202055688295E+001     0.147243119614E-001    -0.245607648056E+001     0.841142278112E+000
     0.156610225139E+000     0.211443913513E+001     0.108021440995E-001    -0.239038102848E+001     0.862334812268E+000
     0.166007829686E+000     0.223606100670E+001     0.600739511820E-002    -0.230499581732E+001     0.883996325010E+000
     0.175969289968E+000     0.237494952149E+001     0.122649749026E-002    -0.220735462148E+001     0.905984803795E+000
     0.185969289968E+000     0.248513210332E+001    -0.437842323037E-002    -0.213014495010E+001     0.927286298294E+000
     0.195969289968E+000     0.253198448330E+001    -0.104421067680E-001    -0.209799110476E+001     0.948266469202E+000
     0.205969289968E+000     0.251290496443E+001    -0.148399250088E-001    -0.211258737445E+001     0.969392864157E+000
     0.215969289968E+000     0.246870339753E+001    -0.156160541929E-001    -0.214384788169E+001     0.990831911713E+000
