 #        time                      h  [L]            Darcian flow [L.T^{-1}]   in    x         z              directions   cumulative flux
 #-----------------------------------------------------------------------------------------------

     0.100000000000E-005    -0.278499999997E+003    -0.242384228306E-009    -0.181911744202E-008     0.183519437172E-014
     0.205999994278E-005    -0.278499999981E+003    -0.168992076873E-008    -0.126969661118E-007     0.154126632829E-013
     0.318359982147E-005    -0.278499999923E+003    -0.688354153482E-008    -0.517773249611E-007     0.741015292083E-013
     0.437461562859E-005    -0.278499999760E+003    -0.213955064745E-007    -0.161128822935E-006     0.267692952337E-012
     0.563709231599E-005    -0.278499999369E+003    -0.561988960975E-007    -0.423763843127E-006     0.807369044688E-012
     0.697531753239E-005    -0.278499998521E+003    -0.131422911074E-006    -0.992279460990E-006     0.214685862805E-011
     0.839383618521E-005    -0.278499996817E+003    -0.282179221246E-006    -0.213341904860E-005     0.519951009320E-011
     0.989746587602E-005    -0.278499993582E+003    -0.567449594256E-006    -0.429624206772E-005     0.117155713655E-010
     0.114913132622E-004    -0.278499987715E+003    -0.108345747684E-005    -0.821498856551E-005     0.249223948205E-010
     0.131807914004E-004    -0.278499977448E+003    -0.198355369763E-005    -0.150625231417E-004     0.505899044420E-010
     0.149716381303E-004    -0.278499960008E+003    -0.350749025901E-005    -0.266769680417E-004     0.987754341137E-010
     0.168699355614E-004    -0.278499931107E+003    -0.602411992723E-005    -0.458934783553E-004     0.186642235046E-009
     0.188821307298E-004    -0.278499884210E+003    -0.100931344946E-004    -0.770259364056E-004     0.342958412490E-009
     0.210150574931E-004    -0.278499809462E+003    -0.165535601859E-004    -0.126560712191E-003     0.615202382409E-009
     0.232759597402E-004    -0.278499692171E+003    -0.266494715568E-004    -0.204147768675E-003     0.108067656031E-008
     0.256725159928E-004    -0.278499510630E+003    -0.422068884151E-004    -0.324004621636E-003     0.186373244303E-008
     0.282128654833E-004    -0.278499233065E+003    -0.658801715643E-004    -0.506887376912E-003     0.316223379323E-008
     0.309056357980E-004    -0.278498813361E+003    -0.101491511085E-003    -0.782831655741E-003     0.528786159732E-008
     0.337599721774E-004    -0.278498185159E+003    -0.154493360389E-003    -0.119492612097E-002     0.872697169391E-008
     0.367855685763E-004    -0.278497253763E+003    -0.232590967845E-003    -0.180445410812E-002     0.142316892543E-007
     0.399927005860E-004    -0.278495885174E+003    -0.346570521620E-003    -0.269782632715E-002     0.229550753612E-007
     0.433922603327E-004    -0.278493891367E+003    -0.511387830081E-003    -0.399583154660E-002     0.366499380917E-007
     0.469957934698E-004    -0.278491010711E+003    -0.747582692235E-003    -0.586585389729E-002     0.579587120949E-007
     0.508155383889E-004    -0.278486882187E+003    -0.108309463906E-002    -0.853784477551E-002     0.908324691083E-007
     0.548644677845E-004    -0.278481011760E+003    -0.155556553736E-002    -0.123249914904E-001     0.141131385277E-006
     0.591563327122E-004    -0.278472728951E+003    -0.221522201922E-002    -0.176501871851E-001     0.217477898173E-006
     0.637057092900E-004    -0.278461131307E+003    -0.312843355119E-002    -0.250795659491E-001     0.332458540177E-006
     0.685280482021E-004    -0.278445014195E+003    -0.438203729343E-002    -0.353645075470E-001     0.504302412732E-006
     0.736397271730E-004    -0.278422783034E+003    -0.608850547904E-002    -0.494936185871E-001     0.759204995532E-006
     0.790581065897E-004    -0.278392344976E+003    -0.839200174514E-002    -0.687562418605E-001     0.113451711339E-005
     0.848015884613E-004    -0.278350976980E+003    -0.114753272405E-001    -0.948190182603E-001     0.168308215612E-005
     0.908896789166E-004    -0.278295167447E+003    -0.155676939950E-001    -0.129816920965E+000     0.247908190644E-005
     0.973430544509E-004    -0.278220428997E+003    -0.209531809752E-001    -0.176460005247E+000     0.362584454619E-005
     0.104183632148E-003    -0.278121080749E+003    -0.279796248084E-001    -0.238156879587E+000     0.526617968654E-005
     0.111434644115E-003    -0.277989999671E+003    -0.370675644420E-001    -0.319155602169E+000     0.759593674563E-005
     0.119120716386E-003    -0.277818342444E+003    -0.487186801627E-001    -0.424702301755E+000     0.108816364958E-004
     0.127267952553E-003    -0.277595242112E+003    -0.635229154508E-001    -0.561217217459E+000     0.154832018729E-004
     0.135904022424E-003    -0.277307487941E+003    -0.821631111455E-001    -0.736486896103E+000     0.218830116929E-004
     0.145058255993E-003    -0.276939202784E+003    -0.105415481361E+000    -0.959869793199E+000     0.307227144895E-004
     0.154761743052E-003    -0.276471539950E+003    -0.134143593897E+000    -0.124251030316E+001     0.428494583582E-004
     0.165047438780E-003    -0.275882431026E+003    -0.169282678802E+000    -0.159755310241E+001     0.593733974613E-004
     0.175950275662E-003    -0.275146426594E+003    -0.211810115330E+000    -0.204034539426E+001     0.817384961504E-004
     0.187507282134E-003    -0.274234681954E+003    -0.262696968139E+000    -0.258860887078E+001     0.111808720089E-003
     0.199757708333E-003    -0.273115147755E+003    -0.322834739999E+000    -0.326255550023E+001     0.151971608632E-003
     0.212743159403E-003    -0.271753027694E+003    -0.392931563355E+000    -0.408491104887E+001     0.205260858233E-003
     0.226507736794E-003    -0.270111558895E+003    -0.473373531283E+000    -0.508079701849E+001     0.275498761281E-003
     0.241098188040E-003    -0.268153151871E+003    -0.564050487418E+000    -0.627740520335E+001     0.367457930931E-003
     0.256564065527E-003    -0.265840894546E+003    -0.664151882513E+000    -0.770338001442E+001     0.487039432945E-003
     0.272957894778E-003    -0.263140379590E+003    -0.771947293345E+000    -0.938780469458E+001     0.641460932973E-003
     0.290335352846E-003    -0.260021760650E+003    -0.884577157832E+000    -0.113586747230E+002     0.839443471344E-003
     0.308755457403E-003    -0.256461887699E+003    -0.997890648276E+000    -0.136407466806E+002     0.109137889571E-002
     0.328280767180E-003    -0.252446323255E+003    -0.110637723039E+001    -0.162526914673E+002     0.140945215530E-002
     0.348977594427E-003    -0.247971009244E+003    -0.120324409333E+001    -0.192035782868E+002     0.180768472106E-002
     0.370916230124E-003    -0.243043350642E+003    -0.128069135008E+001    -0.224888855819E+002     0.230185956112E-002
     0.394171182707E-003    -0.237682521191E+003    -0.133042873335E+001    -0.260864705690E+002     0.290928764197E-002
     0.418821431115E-003    -0.231918890919E+003    -0.134445749541E+001    -0.299531846791E+002     0.364838448717E-002
     0.444950693017E-003    -0.225792625209E+003    -0.131610370726E+001    -0.340230066436E+002     0.453804541698E-002
     0.472647709137E-003    -0.219351650741E+003    -0.124122936893E+001    -0.382076064825E+002     0.559684037762E-002
     0.502006544641E-003    -0.212649333035E+003    -0.111944680666E+001    -0.424000028913E+002     0.684208887251E-002
     0.533126908594E-003    -0.205742271840E+003    -0.955054947081E+000    -0.464814427965E+002     0.828891360288E-002
     0.566114492604E-003    -0.198688535768E+003    -0.757349926807E+000    -0.503309429175E+002     0.994939776574E-002
     0.601081329767E-003    -0.191546455205E+003    -0.539997587871E+000    -0.538362578298E+002     0.118319761211E-001
     0.638146175159E-003    -0.184373841589E+003    -0.319344384109E+000    -0.569045708540E+002     0.139411684543E-001
     0.677434909153E-003    -0.177227300598E+003    -0.111872599014E+000    -0.594710824636E+002     0.162777161277E-001
     0.719080964939E-003    -0.170161256300E+003     0.686294143685E-001    -0.615039335550E+002     0.188391139702E-001
     0.763225781689E-003    -0.163226449340E+003     0.213381599135E+000    -0.630045156360E+002     0.216204527185E-001
     0.810019284919E-003    -0.156467968527E+003     0.319675012811E+000    -0.640031234059E+002     0.246154204370E-001
     0.859620395664E-003    -0.149923190081E+003     0.390348275995E+000    -0.645509608519E+002     0.278172783358E-001
     0.912197570216E-003    -0.143620175532E+003     0.431939855032E+000    -0.647104268704E+002     0.312196455387E-001
     0.967929372233E-003    -0.137577018940E+003     0.452282441944E+000    -0.645459769111E+002     0.348169974565E-001
     0.102700507918E-002    -0.131802353197E+003     0.458442483736E+000    -0.641174237900E+002     0.386048764151E-001
     0.108962532517E-002    -0.126296853510E+003     0.455608811414E+000    -0.634764574605E+002     0.425798901839E-001
     0.115600278233E-002    -0.121055288594E+003     0.446998769228E+000    -0.626659743287E+002     0.467396040299E-001
     0.122636288312E-002    -0.116068588991E+003     0.434406229124E+000    -0.617210862501E+002     0.510824134392E-001
     0.130094458593E-002    -0.111325532865E+003     0.418885195907E+000    -0.606706463761E+002     0.556074414039E-001
     0.138000118665E-002    -0.106813892533E+003     0.401227727061E+000    -0.595385703709E+002     0.603144652665E-001
     0.146380117888E-002    -0.102521106809E+003     0.382161447645E+000    -0.583447485693E+002     0.652038596256E-001
     0.155262916586E-002    -0.984346558075E+002     0.362369694311E+000    -0.571056572424E+002     0.702765423301E-001
     0.164678682697E-002    -0.945423522803E+002     0.342462692450E+000    -0.558347822554E+002     0.755339137238E-001
     0.174659394236E-002    -0.908324485171E+002     0.322908739561E+000    -0.545432552281E+002     0.809778140915E-001
     0.185238947896E-002    -0.872938321715E+002     0.304057333883E+000    -0.532402368126E+002     0.866104853693E-001
     0.196453274170E-002    -0.839161725001E+002     0.286126890958E+000    -0.519332763071E+002     0.924345408110E-001
     0.208340459379E-002    -0.806899726804E+002     0.269198318440E+000    -0.506286439031E+002     0.984529465541E-001
     0.220940875020E-002    -0.776065385502E+002     0.253240675027E+000    -0.493315822001E+002     0.104669012856E+000
     0.234297314879E-002    -0.746578992497E+002     0.238156433601E+000    -0.480464684786E+002     0.111086389358E+000
     0.248455140365E-002    -0.718367075441E+002     0.223833519978E+000    -0.467769234501E+002     0.117709060367E+000
     0.263462434571E-002    -0.691361397782E+002     0.210183327980E+000    -0.455258960173E+002     0.124541338335E+000
     0.279370165569E-002    -0.665498095591E+002     0.197153634314E+000    -0.442957400913E+002     0.131587855308E+000
     0.296232359518E-002    -0.640717038393E+002     0.184721582151E+000    -0.430882902842E+002     0.138853553151E+000
     0.314106284138E-002    -0.616961449294E+002     0.172880063276E+000    -0.419049369555E+002     0.146343673735E+000
     0.333052643213E-002    -0.594177742179E+002     0.161627516735E+000    -0.407466984696E+002     0.154063750272E+000
     0.353135782749E-002    -0.572315472225E+002     0.150963523409E+000    -0.396142868839E+002     0.162019600551E+000
     0.374423909507E-002    -0.551327282738E+002     0.140887517102E+000    -0.385081638063E+002     0.170217322140E+000
     0.396989322653E-002    -0.531168777307E+002     0.131397555336E+000    -0.374285850694E+002     0.178663289041E+000
     0.420908659296E-002    -0.511798322331E+002     0.122487609547E+000    -0.363756349335E+002     0.187364148945E+000
     0.446263154769E-002    -0.493176137267E+002     0.114167968175E+000    -0.353492738609E+002     0.196326825730E+000
     0.473138918520E-002    -0.475264808645E+002     0.106391751325E+000    -0.343492523232E+002     0.205558493917E+000
     0.501627226558E-002    -0.458033954504E+002     0.991275721782E-001    -0.333753277129E+002     0.215066602022E+000
     0.531824831448E-002    -0.441446407880E+002     0.923580802710E-001    -0.324271833119E+002     0.224858874433E+000
     0.563834290904E-002    -0.425471089061E+002     0.860637200239E-001    -0.315042953658E+002     0.234943266713E+000
     0.597764316095E-002    -0.410077326607E+002     0.802131206693E-001    -0.306060752850E+002     0.245327951432E+000
     0.633730140856E-002    -0.395234442394E+002     0.747861111935E-001    -0.297317418241E+002     0.256021251423E+000
     0.671853913045E-002    -0.380905731745E+002     0.698086970528E-001    -0.288803991081E+002     0.267031581152E+000
     0.712265109384E-002    -0.367058136071E+002     0.651189629133E-001    -0.280505227836E+002     0.278367163533E+000
     0.755100975191E-002    -0.353642193887E+002     0.607036349667E-001    -0.272402022272E+002     0.290035768978E+000
     0.800506990496E-002    -0.340598131609E+002     0.565628754304E-001    -0.264464911166E+002     0.302044094247E+000
     0.848637364120E-002    -0.327846090962E+002     0.526572016967E-001    -0.256650565331E+002     0.314396807846E+000
     0.899655557408E-002    -0.315276616326E+002     0.490631536384E-001    -0.248897421878E+002     0.327095129295E+000
     0.953734839373E-002    -0.302747559437E+002     0.457310811615E-001    -0.241119002752E+002     0.340134695285E+000
     0.101105887516E-001    -0.290070986362E+002     0.425864775781E-001    -0.233199237787E+002     0.353502639029E+000
     0.107182234982E-001    -0.277007815918E+002     0.398519477546E-001    -0.224987270700E+002     0.367173668796E+000
     0.113623162948E-001    -0.263234831020E+002     0.367508097264E-001    -0.216288225215E+002     0.381104657691E+000
     0.120450546223E-001    -0.248425735195E+002     0.340981607074E-001    -0.206868744827E+002     0.395228398964E+000
     0.127687572104E-001    -0.232197657743E+002     0.319243211295E-001    -0.196470638284E+002     0.409447048676E+000
     0.135358819124E-001    -0.214047899231E+002     0.283378122828E-001    -0.184761717013E+002     0.423620593057E+000
     0.143490340526E-001    -0.193637469542E+002     0.243505604302E-001    -0.171460289206E+002     0.437562937230E+000
     0.152109752747E-001    -0.170552032388E+002     0.200282236890E-001    -0.156257080315E+002     0.451031390170E+000
     0.161246329208E-001    -0.144424118871E+002     0.192977245861E-001    -0.138886995279E+002     0.463720918938E+000
     0.170931099734E-001    -0.115513516698E+002     0.175098689692E-001    -0.119385828407E+002     0.475283174895E+000
     0.181196955938E-001    -0.844492763396E+001     0.152462343182E-001    -0.981512275713E+001     0.485359250935E+000
     0.192078762926E-001    -0.529817724711E+001     0.130382168472E-001    -0.763466408197E+001     0.493667157146E+000
     0.203613477710E-001    -0.241051687462E+001     0.104934720559E-001    -0.561067364970E+001     0.500138920495E+000
     0.215840274722E-001    -0.154699706630E+000     0.643459458498E-002    -0.401254869882E+001     0.505044988647E+000
     0.228800678855E-001     0.127072348759E+001    -0.139577556159E-002    -0.298861614067E+001     0.508918356368E+000
     0.242538706494E-001     0.198212414683E+001    -0.574618690838E-002    -0.248501103222E+001     0.512332280519E+000
     0.257101015006E-001     0.223757463410E+001    -0.124461868990E-001    -0.230542934749E+001     0.515689566783E+000
     0.272537061195E-001     0.223598862964E+001    -0.168101717113E-001    -0.230748733212E+001     0.519251509403E+000
     0.288899269272E-001     0.210409729155E+001    -0.243357682941E-001    -0.240036670092E+001     0.523179241188E+000
     0.306243208897E-001     0.192930529109E+001    -0.255511658405E-001    -0.252546319766E+001     0.527559613486E+000
     0.324627783907E-001     0.173412269716E+001    -0.264837570556E-001    -0.266343758153E+001     0.532456472350E+000
     0.344115432366E-001     0.155468588121E+001    -0.233500924316E-001    -0.278938684621E+001     0.537892521831E+000
     0.364772338618E-001     0.141193718628E+001    -0.168009138358E-001    -0.288928104859E+001     0.543860983511E+000
     0.386668658063E-001     0.129824677692E+001    -0.841611613091E-002    -0.296872976508E+001     0.550361435160E+000
     0.409878755421E-001     0.120374590422E+001    -0.855048098119E-003    -0.303464228130E+001     0.557404869719E+000
     0.434481457293E-001     0.112029827904E+001     0.414573182565E-002    -0.309305917612E+001     0.565014637833E+000
     0.460560319869E-001     0.104672198538E+001     0.657125117241E-002    -0.314506160963E+001     0.573216618687E+000
     0.488203912708E-001     0.982776820999E+000     0.428851361817E-002    -0.319016321758E+001     0.582035383963E+000
     0.517506119535E-001     0.946506804710E+000     0.461533734519E-002    -0.321578203915E+001     0.591458344710E+000
     0.548566457095E-001     0.942773268701E+000     0.532654681297E-002    -0.321898483523E+001     0.601456633957E+000
     0.581490413132E-001     0.971033597777E+000     0.634162673496E-002    -0.319884660698E+001     0.611988523158E+000
     0.616389804647E-001     0.103580248796E+001     0.569108094936E-002    -0.315183685164E+001     0.622988259917E+000
     0.653383157655E-001     0.115862263230E+001     0.803818579516E-002    -0.306582294177E+001     0.634329805934E+000
     0.692596109728E-001     0.131986915161E+001     0.893413796148E-002    -0.295192907139E+001     0.645905244269E+000
     0.734161836681E-001     0.151466405897E+001     0.829684384959E-002    -0.281441824468E+001     0.657603629130E+000
     0.778221504872E-001     0.172112627236E+001     0.461721904356E-002    -0.266873332970E+001     0.669361997228E+000
     0.824924750635E-001     0.191512582070E+001    -0.148661870364E-002    -0.253230656540E+001     0.681188692853E+000
     0.874430188470E-001     0.205973074587E+001    -0.892918865776E-002    -0.243124575012E+001     0.693224762561E+000
     0.926905949743E-001     0.212870728023E+001    -0.160650872323E-001    -0.238336311064E+001     0.705731926042E+000
     0.982530253690E-001     0.212693868944E+001    -0.187802927359E-001    -0.238482176348E+001     0.718997742422E+000
     0.104149201269E+000     0.208451535195E+001    -0.155515995929E-001    -0.241433116985E+001     0.733233358998E+000
     0.110399147386E+000     0.202514743789E+001    -0.817789515454E-002    -0.245525838631E+001     0.748578676735E+000
     0.117024089912E+000     0.196607746610E+001     0.195415844413E-003    -0.249604249169E+001     0.765114814836E+000
     0.124046528610E+000     0.192547886004E+001     0.753828834080E-002    -0.252371195890E+001     0.782837506421E+000
     0.131490313229E+000     0.192053007722E+001     0.130986084810E-001    -0.252658456588E+001     0.801645110492E+000
     0.139380724499E+000     0.195432583254E+001     0.157466676744E-001    -0.250253241755E+001     0.821391511380E+000
     0.147744559993E+000     0.202016440311E+001     0.147395478759E-001    -0.245634843243E+001     0.841936375457E+000
     0.156610225139E+000     0.211385628090E+001     0.108398606871E-001    -0.239072871950E+001     0.863131993607E+000
     0.166007829686E+000     0.223546082917E+001     0.584817942948E-002    -0.230548092369E+001     0.884798061324E+000
     0.175969289968E+000     0.237429037476E+001     0.125158843447E-002    -0.220781343000E+001     0.906791110651E+000
     0.185969289968E+000     0.248470594582E+001    -0.434646420740E-002    -0.213044830224E+001     0.928095638011E+000
     0.195969289968E+000     0.253192117174E+001    -0.104127099064E-001    -0.209802793008E+001     0.949076175706E+000
     0.205969289968E+000     0.251603143929E+001    -0.148416864374E-001    -0.211043254770E+001     0.970181023050E+000
     0.215969289968E+000     0.246919520316E+001    -0.156235224324E-001    -0.214350225622E+001     0.991616614987E+000
