 #        time                      h  [L]            Darcian flow [L.T^{-1}]   in    x         z              directions   cumulative flux
 #-----------------------------------------------------------------------------------------------

     0.100000000000E-005    -0.278499999997E+003    -0.244276594814E-009    -0.183308961702E-008     0.184929408122E-014
     0.205999994278E-005    -0.278499999981E+003    -0.170294999636E-008    -0.127944526892E-007     0.155310175876E-013
     0.318359982147E-005    -0.278499999922E+003    -0.693635823046E-008    -0.521752214370E-007     0.746708814476E-013
     0.437461562859E-005    -0.278499999758E+003    -0.215597434425E-007    -0.162368790616E-006     0.269752023732E-012
     0.563709231599E-005    -0.278499999364E+003    -0.566308060043E-007    -0.427029919870E-006     0.813587359274E-012
     0.697531753239E-005    -0.278499998509E+003    -0.132434459574E-006    -0.999940895540E-006     0.216341864458E-011
     0.839383618521E-005    -0.278499996792E+003    -0.284355035275E-006    -0.214992405148E-005     0.523968532417E-011
     0.989746587602E-005    -0.278499993533E+003    -0.571834084355E-006    -0.432955366876E-005     0.118062669047E-010
     0.114913132622E-004    -0.278499987619E+003    -0.109184855035E-005    -0.827884323273E-005     0.251157399192E-010
     0.131807914004E-004    -0.278499977272E+003    -0.199895603709E-005    -0.151799254913E-004     0.509832978815E-010
     0.149716381303E-004    -0.278499959694E+003    -0.353480513270E-005    -0.268855258610E-004     0.995455122948E-010
     0.168699355614E-004    -0.278499930565E+003    -0.607118194012E-005    -0.462534488027E-004     0.188101459309E-009
     0.188821307298E-004    -0.278499883296E+003    -0.101722536735E-004    -0.776322329862E-004     0.345647967458E-009
     0.210150574931E-004    -0.278499807952E+003    -0.166837889034E-004    -0.127560641554E-003     0.620042725083E-009
     0.232759597402E-004    -0.278499689720E+003    -0.268599031759E-004    -0.205766971877E-003     0.108920854833E-008
     0.256725159928E-004    -0.278499506718E+003    -0.425414017517E-004    -0.326584628629E-003     0.187849931653E-008
     0.282128654833E-004    -0.278499226908E+003    -0.664041742056E-004    -0.510939396909E-003     0.318737992607E-008
     0.309056357980E-004    -0.278498803798E+003    -0.102301401445E-003    -0.789112758953E-003     0.533006131494E-008
     0.337599721774E-004    -0.278498170479E+003    -0.155729631666E-003    -0.120454587350E-002     0.879685523010E-008
     0.367855685763E-004    -0.278497231478E+003    -0.234456108801E-003    -0.181902204382E-002     0.143460092485E-007
     0.399927005860E-004    -0.278495851700E+003    -0.349353144505E-003    -0.271965344850E-002     0.231399643416E-007
     0.433922603327E-004    -0.278493841590E+003    -0.515494762908E-003    -0.402820240452E-002     0.369457558100E-007
     0.469957934698E-004    -0.278490937405E+003    -0.753581116606E-003    -0.591338977434E-002     0.584271852059E-007
     0.508155383889E-004    -0.278486775244E+003    -0.109176672068E-002    -0.860698311465E-002     0.915671021283E-007
     0.548644677845E-004    -0.278480857172E+003    -0.156797835016E-002    -0.124246119122E-001     0.142272492922E-006
     0.591563327122E-004    -0.278472507483E+003    -0.223281586326E-002    -0.177924200406E-001     0.219234101547E-006
     0.637057092900E-004    -0.278460816795E+003    -0.315313192689E-002    -0.252808250065E-001     0.335137213723E-006
     0.685280482021E-004    -0.278444571370E+003    -0.441638172284E-002    -0.356467935766E-001     0.508352399981E-006
     0.736397271730E-004    -0.278422164788E+003    -0.613581795185E-002    -0.498861446504E-001     0.765275966710E-006
     0.790581065897E-004    -0.278391488965E+003    -0.845657670718E-002    -0.692974333802E-001     0.114354125568E-005
     0.848015884613E-004    -0.278349801462E+003    -0.115626536699E-001    -0.955589410349E-001     0.169638550766E-005
     0.908896789166E-004    -0.278293566259E+003    -0.156847062003E-001    -0.130820188202E+000     0.249853461015E-005
     0.973430544509E-004    -0.278218265588E+003    -0.211085342889E-001    -0.177809210879E+000     0.365406165482E-005
     0.104183632148E-003    -0.278118181203E+003    -0.281839892499E-001    -0.239956600174E+000     0.530678694914E-005
     0.111434644115E-003    -0.277986144699E+003    -0.373339253577E-001    -0.321537003552E+000     0.765391910086E-005
     0.119120716386E-003    -0.277813258380E+003    -0.490626291556E-001    -0.427828377537E+000     0.109637908339E-004
     0.127267952553E-003    -0.277588591033E+003    -0.639629065167E-001    -0.565288670392E+000     0.155987200087E-004
     0.135904022424E-003    -0.277298857175E+003    -0.827206445664E-001    -0.741748644244E+000     0.220442243387E-004
     0.145058255993E-003    -0.276928094276E+003    -0.106115160325E+000    -0.966618033112E+000     0.309460321224E-004
     0.154761743052E-003    -0.276457360207E+003    -0.135012975146E+000    -0.125109998543E+001     0.431565498347E-004
     0.165047438780E-003    -0.275864482693E+003    -0.170351808794E+000    -0.160840556425E+001     0.597926513953E-004
     0.175950275662E-003    -0.275123903055E+003    -0.213110609235E+000    -0.205395574371E+001     0.823068124319E-004
     0.187507282134E-003    -0.274206666685E+003    -0.264260455583E+000    -0.260555251892E+001     0.112573678004E-003
     0.199757708333E-003    -0.273080620365E+003    -0.324690479462E+000    -0.328349297853E+001     0.152994051691E-003
     0.212743159403E-003    -0.271710878598E+003    -0.395103033467E+000    -0.411058990872E+001     0.206617920854E-003
     0.226507736794E-003    -0.270060614258E+003    -0.475873863697E+000    -0.511204916419E+001     0.277287334402E-003
     0.241098188040E-003    -0.268092209798E+003    -0.566876734176E+000    -0.631513743573E+001     0.369798516030E-003
     0.256564065527E-003    -0.265768772400E+003    -0.667278324315E+000    -0.774855486555E+001     0.490080258468E-003
     0.272957894778E-003    -0.263055971022E+003    -0.775318290374E+000    -0.944140789204E+001     0.645382094132E-003
     0.290335352846E-003    -0.259924099350E+003    -0.888100395695E+000    -0.114216650644E+002     0.844460695292E-003
     0.308755457403E-003    -0.256350213393E+003    -0.100143198985E+001    -0.137139841855E+002     0.109774632829E-002
     0.328280767180E-003    -0.252320144104E+003    -0.110975868805E+001    -0.163368411244E+002     0.141746332961E-002
     0.348977594427E-003    -0.247830153724E+003    -0.120624662224E+001    -0.192989903694E+002     0.181767064862E-002
     0.370916230124E-003    -0.242888001671E+003    -0.128306417060E+001    -0.225954598790E+002     0.231418276758E-002
     0.394171182707E-003    -0.237513226229E+003    -0.133190663604E+001    -0.262035205394E+002     0.292433106625E-002
     0.418821431115E-003    -0.231736544841E+003    -0.134478681678E+001    -0.300793262998E+002     0.366653458182E-002
     0.444950693017E-003    -0.225598427127E+003    -0.131507662983E+001    -0.341561027542E+002     0.455966959295E-002
     0.472647709137E-003    -0.219147041306E+003    -0.123872355337E+001    -0.383447967528E+002     0.562226007521E-002
     0.502006544641E-003    -0.212435923908E+003    -0.111546391390E+001    -0.425378379915E+002     0.687155077230E-002
     0.533126908594E-003    -0.205521780492E+003    -0.949748344070E+000    -0.466161213882E+002     0.832256249427E-002
     0.566114492604E-003    -0.198462735186E+003    -0.751030192028E+000    -0.504586269148E+002     0.998725505252E-002
     0.601081329767E-003    -0.191317140844E+003    -0.533106597614E+000    -0.539534212427E+002     0.118739276401E-001
     0.638146175159E-003    -0.184142809491E+003    -0.312396032038E+000    -0.570083264457E+002     0.139869641709E-001
     0.677434909153E-003    -0.176996324767E+003    -0.105369378919E+000    -0.595594311120E+002     0.163269824787E-001
     0.719080964939E-003    -0.169932053301E+003     0.742836481351E-001    -0.615758928425E+002     0.188913774131E-001
     0.763225781689E-003    -0.163000624610E+003     0.217946967068E+000    -0.630601050013E+002     0.216751708189E-001
     0.810019284919E-003    -0.156246949401E+003     0.323098012893E+000    -0.640432115636E+002     0.246720151832E-001
     0.859620395664E-003    -0.149708160038E+003     0.392735073917E+000    -0.645770129300E+002     0.278751659882E-001
     0.912197570216E-003    -0.143412027769E+003     0.433493300473E+000    -0.647242139176E+002     0.312782586050E-001
     0.967929372233E-003    -0.137376342917E+003     0.453229111914E+000    -0.645493163706E+002     0.348757970024E-001
     0.102700507918E-002    -0.131609457233E+003     0.458976470986E+000    -0.641120004609E+002     0.386633558078E-001
     0.108962532517E-002    -0.126111815036E+003     0.455866654193E+000    -0.634637388573E+002     0.426375732711E-001
     0.115600278233E-002    -0.120878016507E+003     0.447063071573E+000    -0.626472008414E+002     0.467960410429E-001
     0.122636288312E-002    -0.115898882464E+003     0.434324240519E+000    -0.616973006778E+002     0.511371768978E-001
     0.130094458593E-002    -0.111163126679E+003     0.418687723461E+000    -0.606427316885E+002     0.556601228855E-001
     0.138000118665E-002    -0.106658486638E+003     0.400940521909E+000    -0.595072795563E+002     0.603646729058E-001
     0.146380117888E-002    -0.102372383637E+003     0.381808912334E+000    -0.583107242486E+002     0.652512158947E-001
     0.155262916586E-002    -0.982922913426E+002     0.361975094843E+000    -0.570694446805E+002     0.703206817527E-001
     0.164678682697E-002    -0.944060247559E+002     0.342045761823E+000    -0.557968412302E+002     0.755744805346E-001
     0.174659394236E-002    -0.907018422361E+002     0.322485132469E+000    -0.545039784895E+002     0.810144606227E-001
     0.185238947896E-002    -0.871686452847E+002     0.303639182084E+000    -0.531999581900E+002     0.866428704189E-001
     0.196453274170E-002    -0.837961221264E+002     0.285721777641E+000    -0.518922805061E+002     0.924623282772E-001
     0.208340459379E-002    -0.805747965457E+002     0.268809406569E+000    -0.505871759038E+002     0.984758044663E-001
     0.220940875020E-002    -0.774959942351E+002     0.252867735650E+000    -0.492898538403E+002     0.104686612649E+000
     0.234297314879E-002    -0.745517621326E+002     0.237797406701E+000    -0.480046626648E+002     0.111098405214E+000
     0.248455140365E-002    -0.717347681684E+002     0.223486145015E+000    -0.467351971864E+002     0.117715168524E+000
     0.263462434571E-002    -0.690382012154E+002     0.209846151347E+000    -0.454843829425E+002     0.124541216336E+000
     0.279370165569E-002    -0.664556852045E+002     0.196826217929E+000    -0.442545528792E+002     0.131581181190E+000
     0.296232359518E-002    -0.639812159095E+002     0.184404192090E+000    -0.430475230295E+002     0.138840004614E+000
     0.314106284138E-002    -0.616091237547E+002     0.172573281506E+000    -0.418646675443E+002     0.146322927308E+000
     0.333052643213E-002    -0.593340581381E+002     0.161332004457E+000    -0.407069908467E+002     0.154035480534E+000
     0.353135782749E-002    -0.571509827159E+002     0.150679939798E+000    -0.395751931103E+002     0.161983479396E+000
     0.374423909507E-002    -0.550551699665E+002     0.140616489505E+000    -0.384697258172E+002     0.170173018101E+000
     0.396989322653E-002    -0.530421881300E+002     0.131139623302E+000    -0.373908361058E+002     0.178610466641E+000
     0.420908659296E-002    -0.511078811877E+002     0.122243124704E+000    -0.363386006994E+002     0.187302468055E+000
     0.446263154769E-002    -0.492481971319E+002     0.113944432720E+000    -0.353129762803E+002     0.196255941637E+000
     0.473138918520E-002    -0.474596040059E+002     0.106185902932E+000    -0.343136880275E+002     0.205478051522E+000
     0.501627226558E-002    -0.457389261306E+002     0.989261542828E-001    -0.333405205716E+002     0.214976243534E+000
     0.531824831448E-002    -0.440824575444E+002     0.921676546286E-001    -0.323931389351E+002     0.224758235237E+000
     0.563834290904E-002    -0.424871031593E+002     0.858848875441E-001    -0.314710106703E+002     0.234831973150E+000
     0.597764316095E-002    -0.409496822777E+002     0.800297914139E-001    -0.305734873472E+002     0.245205600648E+000
     0.633730140856E-002    -0.394674294684E+002     0.746341466873E-001    -0.296999148581E+002     0.255887453707E+000
     0.671853913045E-002    -0.380364183914E+002     0.696663691328E-001    -0.288492954709E+002     0.266885925459E+000
     0.712265109384E-002    -0.366533690628E+002     0.649844938637E-001    -0.280200906146E+002     0.278209209744E+000
     0.755100975191E-002    -0.353133301021E+002     0.605697875511E-001    -0.272103781160E+002     0.289865039676E+000
     0.800506990496E-002    -0.340101940345E+002     0.564389483064E-001    -0.264171453534E+002     0.301860040114E+000
     0.848637364120E-002    -0.327359146963E+002     0.525794585102E-001    -0.256360487608E+002     0.314198792117E+000
     0.899655557408E-002    -0.314795081998E+002     0.489635148292E-001    -0.248607810418E+002     0.326882338041E+000
     0.953734839373E-002    -0.302264514036E+002     0.456411497879E-001    -0.240826113000E+002     0.339906064699E+000
     0.101105887516E-001    -0.289579988582E+002     0.424959627305E-001    -0.232899155081E+002     0.353256806425E+000
     0.107182234982E-001    -0.276498563598E+002     0.397729269452E-001    -0.224673792649E+002     0.366908788122E+000
     0.113623162948E-001    -0.262694124666E+002     0.366739027924E-001    -0.215952894205E+002     0.380818178535E+000
     0.120450546223E-001    -0.247862930255E+002     0.344405874219E-001    -0.206511451817E+002     0.394917526466E+000
     0.127687572104E-001    -0.231553189606E+002     0.318675522548E-001    -0.196064740326E+002     0.409106801209E+000
     0.135358819124E-001    -0.213366598564E+002     0.293283111144E-001    -0.184314819905E+002     0.423246064238E+000
     0.143490340526E-001    -0.192795815974E+002     0.243424530839E-001    -0.170923778899E+002     0.437144781996E+000
     0.152109752747E-001    -0.169511678923E+002     0.221611048104E-001    -0.155600319734E+002     0.450556628574E+000
     0.161246329208E-001    -0.143303629979E+002     0.197605706277E-001    -0.138142565036E+002     0.463178142566E+000
     0.170931099734E-001    -0.114246362670E+002     0.175679537399E-001    -0.118538294009E+002     0.474658316934E+000
     0.181196955938E-001    -0.830644459447E+001     0.152888735206E-001    -0.972103645687E+001     0.484637805518E+000
     0.192078762926E-001    -0.515627527210E+001     0.130297357233E-001    -0.753684046268E+001     0.492839262096E+000
     0.203613477710E-001    -0.228084397893E+001     0.100716227845E-001    -0.552031923796E+001     0.499206803486E+000
     0.215840274722E-001    -0.563588294475E-001     0.646887030969E-002    -0.394325813451E+001     0.504028151652E+000
     0.228800678855E-001     0.133009413037E+001    -0.489403704499E-003    -0.294697151657E+001     0.507847545887E+000
     0.242538706494E-001     0.200959154638E+001    -0.603575496413E-002    -0.246586810692E+001     0.511235172455E+000
     0.257101015006E-001     0.223100461163E+001    -0.134900774435E-001    -0.230892126166E+001     0.514597552217E+000
     0.272537061195E-001     0.223869930970E+001    -0.181346704339E-001    -0.230571729640E+001     0.518156778167E+000
     0.288899269272E-001     0.210154785671E+001    -0.240394385393E-001    -0.240282777827E+001     0.522088531730E+000
     0.306243208897E-001     0.192146908441E+001    -0.270515980671E-001    -0.253141980139E+001     0.526479261635E+000
     0.324627783907E-001     0.172646486975E+001    -0.262405652266E-001    -0.266815490935E+001     0.531384788260E+000
     0.344115432366E-001     0.154844882770E+001    -0.231648006589E-001    -0.279384680485E+001     0.536829525843E+000
     0.364772338618E-001     0.140688451884E+001    -0.165433916902E-001    -0.289277683700E+001     0.542805205551E+000
     0.386668658063E-001     0.129428823914E+001    -0.815609835592E-002    -0.297147375841E+001     0.549311663924E+000
     0.409878755421E-001     0.120049188599E+001    -0.657851263314E-003    -0.303689680480E+001     0.556360331140E+000
     0.434481457293E-001     0.111766720670E+001     0.434471317082E-002    -0.309485961664E+001     0.563974529492E+000
     0.460560319869E-001     0.104413781257E+001     0.628330745784E-002    -0.314677474336E+001     0.572180976460E+000
     0.488203912708E-001     0.980547924122E+000     0.481816579523E-002    -0.319139945680E+001     0.581003161231E+000
     0.517506119535E-001     0.945689813043E+000     0.383191691968E-002    -0.321642350271E+001     0.590427998592E+000
     0.548566457095E-001     0.946778742980E+000     0.681459980450E-002    -0.321608539598E+001     0.600417290819E+000
     0.581490413132E-001     0.971824775701E+000     0.642819643383E-002    -0.319826378244E+001     0.610947261704E+000
     0.616389804647E-001     0.104507238307E+001     0.781709635191E-002    -0.314632005314E+001     0.621927761131E+000
     0.653383157655E-001     0.116326368058E+001     0.922626460754E-002    -0.306246542999E+001     0.633256899017E+000
     0.692596109728E-001     0.132160782387E+001     0.854819189386E-002    -0.295071447428E+001     0.644827570097E+000
     0.734161836681E-001     0.151762345397E+001     0.828699610644E-002    -0.281229840057E+001     0.656517143590E+000
     0.778221504872E-001     0.172427276053E+001     0.452846196742E-002    -0.266652803951E+001     0.668265794596E+000
     0.824924750635E-001     0.191910158069E+001    -0.109912127926E-002    -0.252975769113E+001     0.680080585228E+000
     0.874430188470E-001     0.206127719767E+001    -0.903483797639E-002    -0.243017813430E+001     0.692111371626E+000
     0.926905949743E-001     0.212908071776E+001    -0.161418116377E-001    -0.238311313464E+001     0.704617226089E+000
     0.982530253690E-001     0.212768789725E+001    -0.188155805058E-001    -0.238441082628E+001     0.717880758278E+000
     0.104149201269E+000     0.208379634445E+001    -0.154897826506E-001    -0.241482767021E+001     0.732119299904E+000
     0.110399147386E+000     0.202430379808E+001    -0.808428643663E-002    -0.245583937965E+001     0.747468246861E+000
     0.117024089912E+000     0.196521514347E+001     0.247779049169E-003    -0.249652528668E+001     0.764007583481E+000
     0.124046528610E+000     0.192504387350E+001     0.760696807782E-002    -0.252400861810E+001     0.781732359775E+000
     0.131490313229E+000     0.192050500081E+001     0.131432286883E-001    -0.252659724186E+001     0.800540059927E+000
     0.139380724499E+000     0.195471397044E+001     0.158009938561E-001    -0.250224511672E+001     0.820284196641E+000
     0.147744559993E+000     0.202070827120E+001     0.147191524146E-001    -0.245597141406E+001     0.840825906431E+000
     0.156610225139E+000     0.211464659764E+001     0.107936931606E-001    -0.239023531849E+001     0.862017148446E+000
     0.166007829686E+000     0.223632069073E+001     0.605679017605E-002    -0.230480275069E+001     0.883676848045E+000
     0.175969289968E+000     0.237520688135E+001     0.121740438516E-002    -0.220717511054E+001     0.905663538589E+000
     0.185969289968E+000     0.248529436182E+001    -0.439059963858E-002    -0.213003161182E+001     0.926963899958E+000
     0.195969289968E+000     0.253199170391E+001    -0.104544056275E-001    -0.209798681262E+001     0.947944028558E+000
     0.205969289968E+000     0.251240197524E+001    -0.148293511453E-001    -0.211270883805E+001     0.969071637377E+000
     0.215969289968E+000     0.246859972235E+001    -0.156120674731E-001    -0.214392020987E+001     0.990511407905E+000
